0,0,0,0,0,0,0,0,0,0,0,0,0,0,0,0,0,0,0,0,0,0
0.0044535,0.05055,0.11833,0.1194,-0.012109,-0.17446,-0.41656,-0.21996,-0.014476,-0.58972,-0.007747,-0.59068,0.16599,-0.39186,0.0014362,0.023898,-0.039805,0.049443,0.01365,0.15377,-0.0014048,-0.0013037
-0.0085842,0.1275,0.15875,0.20445,-0.020824,-0.40328,-0.87682,-0.46623,-0.015819,-0.8592,-0.022037,-0.96346,0.35363,-0.42653,0.010415,0.086163,-0.11922,0.16224,0.023873,0.36183,0.0033761,-0.0048902
0.006613,0.22236,0.23665,0.2453,-0.016902,-0.59124,-1.349,-0.70758,-0.0074789,-1.2452,-0.033131,-1.3038,0.56122,-0.66012,0.030923,0.17051,-0.17588,0.2539,0.030723,0.56415,0.020371,-0.0095417
0.029795,0.33027,0.22734,0.23765,0.0011831,-0.71896,-1.6963,-0.93652,0.0072553,-1.5911,-0.037703,-1.7286,0.73308,-0.72335,0.05969,0.31582,-0.1694,0.30128,0.035026,0.6598,0.052697,-0.014787
0.053248,0.47099,0.21429,0.18896,0.028327,-0.81976,-1.8168,-1.2137,0.025474,-1.4919,-0.040794,-1.952,0.93578,-0.46207,0.088736,0.40959,-0.13558,0.3138,0.03807,1.2247,0.093715,-0.020735
0.12395,0.62822,0.23297,0.12155,0.058036,-0.92372,-2.0248,-1.241,0.044767,-1.2915,-0.050475,-2.0497,1.1307,-0.034157,0.11641,0.50975,-0.11392,0.42364,0.041273,1.6672,0.13276,-0.027311
0.23323,0.77137,0.23078,0.064758,0.083927,-0.9844,-2.273,-1.3378,0.062793,-0.96678,-0.072176,-2.1071,1.1362,0.72612,0.14145,0.78809,-0.12146,0.50762,0.045663,1.9961,0.1553,-0.033452
0.33581,0.93413,0.39831,0.043599,0.099886,-0.96444,-2.2133,-1.5072,0.076463,-0.78635,-0.10655,-2.0104,1.0266,1.4218,0.16595,0.83481,-0.16634,0.5424,0.051116,1.9665,0.14685,-0.037173
0.42991,1.0855,0.48332,0.068624,0.10154,-0.97592,-1.8861,-1.5486,0.08248,-0.63287,-0.15,-1.3981,1.0246,2.0938,0.19193,1.0126,-0.25007,0.57414,0.05683,1.9444,0.086683,-0.036629
0.5206,1.1987,0.56997,0.12866,0.087764,-0.89423,-1.5576,-1.2836,0.079581,-0.53146,-0.19747,-0.65267,1.2022,2.479,0.21874,1.4728,-0.37149,0.6658,0.062762,1.9323,-0.038157,-0.031323
0.57042,1.2795,0.77591,0.19571,0.060223,-0.84642,-1.4801,-0.71825,0.070533,-0.46056,-0.24473,0.050562,1.1344,3.0489,0.2462,1.7749,-0.52702,0.80221,0.069644,1.4152,0.11096,-0.022663
0.5873,1.3314,0.83675,0.24343,0.023879,-0.80398,-1.5644,-0.31197,0.062,-0.45559,-0.28751,0.98894,1.0704,3.3288,0.27494,2.1131,-0.69051,0.89037,0.077945,1.0144,0.21837,-0.013384
0.59129,1.3692,0.81586,0.2625,-0.013112,-0.76589,-1.531,-0.062426,0.061553,-0.29828,-0.31928,1.6689,1.3362,3.2123,0.30396,2.3313,-0.78903,1.0058,0.087317,0.78779,0.23955,-0.0062548
0.58226,1.4011,1.0535,0.26302,-0.041411,-0.76131,-1.3893,0.22201,0.073808,-0.091616,-0.33161,2.1185,1.4097,2.9849,0.33047,2.3837,-0.72341,1.1495,0.097354,0.50679,0.076971,-0.0029848
0.53654,1.4363,1.3551,0.26827,-0.052669,-0.66814,-1.2622,0.44945,0.099474,0.038016,-0.31691,2.2445,1.5074,2.4068,0.3517,2.325,-0.43697,1.3432,0.10848,0.49813,0.29637,-0.0037098
0.44989,1.4835,1.7588,0.29981,-0.043387,-0.57362,-1.2451,0.44294,0.13724,0.38035,-0.27247,2.1305,2.2646,2.2443,0.36658,2.1862,0.052712,1.4771,0.12068,0.31989,0.63197,-0.0070099
0.38385,1.5462,1.8881,0.3592,-0.017717,-0.53625,-1.1072,0.22207,0.18523,0.42771,-0.20455,1.9652,3.6001,2.778,0.37518,2.1143,0.67596,1.6306,0.13183,0.4201,0.85685,-0.010546
0.31811,1.6167,2.0535,0.4223,0.014539,-0.4691,-0.78613,-0.059196,0.24052,0.6396,-0.12871,1.9194,4.476,3.597,0.37894,1.9186,1.339,1.7194,0.13843,0.42722,1.0615,-0.012244
0.21811,1.6798,2.0894,0.45151,0.042739,-0.48503,-0.34052,-0.42756,0.29844,0.98802,-0.063801,2.0209,5.255,4.1793,0.38006,1.9065,1.9705,1.7539,0.13697,0.30873,1.1737,-0.011256
0.14818,1.7339,2.0281,0.41443,0.058695,-0.5115,-0.03666,-0.38739,0.3535,1.0956,-0.022216,2.238,6.4753,4.6187,0.37866,2.1724,2.568,1.9257,0.12556,0.46929,1.2177,-0.0080504
0.086812,1.7903,1.9722,0.30168,0.05765,-0.46411,0.22172,-0.22294,0.40092,1.2624,-0.0052401,2.7107,7.5051,5.114,0.37297,2.2762,3.2373,2.0579,0.10723,0.52304,1.155,-0.0037767
0.052923,1.8545,2.0216,0.13636,0.043748,-0.22238,0.38851,-0.46431,0.43808,1.5673,-0.0036493,3.5673,8.2664,5.503,0.36337,2.2168,4.107,2.2061,0.089738,0.36631,1.0251,0.00034884
0.00768,1.9245,1.771,-0.03496,0.031157,0.043566,1.335,-0.69082,0.46604,1.8327,-0.0049146,4.5024,8.9356,6.2611,0.35356,2.2082,5.2154,2.2273,0.081257,0.095008,0.80224,0.0032166
0.0053166,1.995,1.5553,-0.16393,0.023065,0.3016,2.076,-0.57266,0.4904,2.0754,-0.0082153,5.3346,9.284,6.5162,0.34708,2.2445,6.5314,2.2062,0.086056,-0.14212,0.5612,0.0039212
0.018035,2.0566,1.8053,-0.21956,0.022228,0.511,2.5996,-0.31495,0.52004,2.4215,-0.016608,5.9962,8.9195,7.3785,0.3442,2.0754,7.9138,2.2231,0.10363,-0.40755,0.21305,0.0022044
0.013834,2.0983,1.9796,-0.19901,0.032698,0.98399,3.5081,0.22046,0.56392,2.6845,-0.022412,6.5138,8.3136,8.6826,0.34457,1.88,9.1474,2.0819,0.13029,-0.74198,0.026741,-0.0011078
0.031799,2.1137,2.1707,-0.12865,0.063148,1.609,4.7607,0.6801,0.62787,2.9182,-0.012462,6.9211,8.3102,9.9694,0.35099,1.5652,10.028,1.8027,0.16125,-0.76105,0.12794,-0.0043813
0.049141,2.1061,2.4983,-0.048269,0.11212,1.9958,6.3592,1.2272,0.71201,3.1666,0.022286,7.2619,8.203,11.575,0.36322,1.4201,10.436,1.5575,0.19176,-0.69838,0.044083,-0.0061039
0.046664,2.0903,2.7429,0.013434,0.16703,2.2934,7.78,1.7204,0.80906,3.442,0.081991,7.6582,7.8526,13.262,0.37867,1.4388,10.402,1.2356,0.21761,-0.73034,-0.099249,-0.0056132
0.048298,2.0875,2.9284,0.050498,0.21654,2.619,9.5536,2.1215,0.9043,3.8799,0.1591,8.1432,7.7982,14.433,0.39741,1.7197,10.108,1.1828,0.23625,-0.73574,-0.016105,-0.00302
0.043341,2.1156,3.0026,0.071158,0.25563,2.9769,11.365,2.572,0.97952,4.3426,0.24447,8.5682,8.4976,15.327,0.42142,2.0486,9.7699,1.3074,0.24659,-0.78345,0.080322,0.001304
0.025021,2.179,2.5217,0.081375,0.2872,3.1517,12.961,2.762,1.021,4.6332,0.33094,8.8199,9.6738,15.865,0.45134,2.4654,9.5458,1.2652,0.24741,-0.71346,0.10223,0.0068975
0.0069861,2.2621,2.158,0.073648,0.31608,3.3041,14.641,2.7307,1.0286,4.7742,0.40876,8.9986,10.473,16.042,0.48565,2.888,9.5633,1.2937,0.23783,-0.65018,0.11237,0.012937
-0.0078158,2.335,2.3618,0.031184,0.34879,3.5729,15.896,2.3313,1.0227,4.8777,0.46891,9.2386,11.679,16.135,0.52,3.2532,9.8915,1.401,0.21872,-0.64622,0.091074,0.018201
-0.016641,2.3735,2.4347,-0.052846,0.38824,4.1852,16.851,2.0389,1.0428,4.9204,0.52165,9.7054,12.131,16.262,0.54898,3.4367,10.505,1.4701,0.19336,-0.65449,0.059764,0.021523
-0.026882,2.3719,2.5332,-0.16006,0.43201,5.0113,17.523,1.8225,1.118,4.9081,0.59241,10.227,12.317,16.724,0.56846,3.6065,11.342,1.4582,0.16772,-0.68002,0.018819,0.022139
-0.029929,2.3451,2.3436,-0.25225,0.47487,5.9699,18.163,1.5186,1.2544,4.9044,0.67477,10.801,12.296,17.873,0.57732,3.6753,12.264,1.419,0.15063,-0.67867,-0.0091271,0.020053
-0.026254,2.3222,2.5948,-0.28927,0.51051,6.8614,18.774,1.3176,1.4456,4.9438,0.74542,11.792,11.514,19.516,0.57882,3.7359,13.086,1.3279,0.14903,-0.58701,-0.013004,0.016542
-0.02034,2.3311,2.9045,-0.24539,0.53373,7.6565,19.409,1.1568,1.667,5.1639,0.79,13.728,11.065,21.348,0.57721,3.8126,13.725,1.246,0.16267,-0.5206,0.0089918,0.013525
-0.016929,2.387,2.8391,-0.11832,0.54116,8.3432,19.903,0.92139,1.8797,5.4711,0.80063,16.072,10.869,23.199,0.57247,3.8807,14.272,1.1811,0.18801,-0.48438,0.050465,0.011937
-0.026354,2.4889,3.0625,0.073924,0.53359,8.8673,20.396,0.9145,2.0462,5.8613,0.78039,18.51,11.362,25.026,0.56364,3.8694,14.846,1.1764,0.22238,-0.49769,0.10506,0.010829
-0.042107,2.6237,2.9742,0.30395,0.51835,9.2403,21.104,1.062,2.1409,6.2425,0.74656,21.423,12.231,26.764,0.55463,3.5804,15.529,1.2326,0.26244,-0.51201,0.16347,0.0081097
-0.071196,2.773,2.8927,0.5391,0.50837,9.5136,21.975,1.2358,2.1561,6.4605,0.72587,23.612,13.823,27.977,0.55396,3.3923,16.37,1.2865,0.302,-0.50245,0.21526,0.0021554
-0.07833,2.9171,2.9926,0.73942,0.51325,9.745,22.87,1.197,2.1037,6.5308,0.73554,24.784,15.128,28.59,0.56755,3.3511,17.37,1.4047,0.33516,-0.50007,0.25189,-0.0067866
-0.072685,3.0334,2.8017,0.86434,0.53598,9.9721,23.67,0.79115,2.0125,6.4548,0.77406,25.601,16.598,28.726,0.59434,3.2696,18.454,1.5023,0.36096,-0.47759,0.26889,-0.016147
-0.083258,3.098,2.5288,0.8867,0.57804,10.232,24.169,0.33119,1.9178,6.5291,0.82958,26.153,18.624,28.587,0.62906,3.4404,19.453,1.532,0.38164,-0.43829,0.26632,-0.022086
-0.079787,3.0983,2.175,0.8073,0.63504,10.542,24.334,0.29892,1.8507,6.4977,0.8896,26.843,19.979,28.427,0.66416,3.6461,20.202,1.5029,0.40013,-0.37727,0.24768,-0.021201
-0.061953,3.0415,2.199,0.66639,0.69499,10.878,24.176,0.015001,1.8292,6.2406,0.94182,27.477,21.007,28.53,0.69423,4.0407,20.572,1.4657,0.41927,-0.29631,0.2189,-0.011682
-0.051869,2.9536,2.1165,0.53649,0.74944,11.221,23.84,-0.35444,1.8582,6.0977,0.9746,27.987,21.317,28.973,0.71791,4.4874,20.553,1.4326,0.43991,-0.19622,0.18831,0.0062281
-0.042563,2.8727,1.9228,0.48896,0.79718,11.577,23.505,-0.47912,1.9332,6.0915,0.96596,28.552,22.212,29.78,0.73571,4.8377,20.308,1.3951,0.46096,-0.090633,0.16478,0.030025
-0.03394,2.8346,1.7388,0.55767,0.84351,11.924,23.384,-0.33871,2.0449,6.1652,0.89235,29.481,21.949,31.003,0.74767,5.1251,20.096,1.412,0.48051,0.005548,0.15308,0.054928
-0.024637,2.8535,1.6094,0.72535,0.89811,12.228,23.545,-0.097206,2.1828,6.2563,0.75967,30.715,22.5,32.532,0.75388,5.332,20.098,1.4919,0.49485,0.079149,0.15182,0.074317
-0.017527,2.9234,1.8411,0.93381,0.96158,12.474,24.313,-0.03477,2.3387,6.4099,0.60371,32.373,23.109,34.269,0.75739,5.4487,20.38,1.6188,0.49952,0.11951,0.15736,0.082033
-0.012973,3.0328,1.7136,1.1102,1.0247,12.668,25.476,0.11692,2.5064,6.6372,0.47119,34.223,23.036,36.552,0.76195,5.3961,20.938,1.7509,0.49277,0.12694,0.16917,0.075956
-0.010071,3.168,2.1448,1.1985,1.0785,12.798,26.704,0.22351,2.6799,6.9007,0.40272,36.282,23.401,38.85,0.76768,5.2337,21.681,1.866,0.47664,0.11401,0.18939,0.059519
-0.0063181,3.3138,2.9095,1.177,1.119,12.855,27.732,0.2017,2.8483,7.2344,0.42461,38.386,24.709,40.587,0.77568,5.0058,22.489,1.971,0.45553,0.10394,0.21745,0.039726
-0.00055578,3.4547,3.3574,1.0545,1.1376,12.867,28.39,0.31435,2.9935,7.395,0.53072,39.995,25.872,41.735,0.79138,4.9348,23.333,2.0561,0.43261,0.12276,0.24734,0.023794
0.0070827,3.5758,3.3483,0.85581,1.1292,12.893,28.629,0.45136,3.0933,7.3119,0.68222,41.018,27.014,42.38,0.81788,4.8826,24.264,2.1192,0.4107,0.17448,0.27022,0.01747
0.016504,3.6628,3.1496,0.61134,1.1013,12.972,28.376,0.35401,3.1285,6.9298,0.83651,41.297,27.962,42.717,0.85035,4.9619,25.378,2.1587,0.39705,0.24836,0.27822,0.024185
0.029159,3.7064,2.9923,0.35369,1.065,13.125,27.794,0.40638,3.0901,6.537,0.96683,40.973,28.662,42.886,0.8807,5.3212,26.772,2.1624,0.40198,0.33305,0.26747,0.044716
0.045635,3.7068,2.5592,0.11926,1.0286,13.352,27.129,0.45887,2.9866,5.9763,1.0604,40.324,29.356,42.948,0.90239,5.473,28.312,2.126,0.43168,0.40479,0.24102,0.075246
0.062846,3.6731,2.0647,-0.052063,0.99889,13.61,26.645,0.26121,2.85,5.6676,1.1113,39.825,29.398,42.979,0.9103,5.4854,29.723,2.0599,0.48178,0.44317,0.20985,0.1059
0.076397,3.6228,1.6712,-0.1251,0.98317,13.836,26.556,-0.033011,2.7348,5.7609,1.1203,39.899,28.861,43.349,0.90268,5.377,30.774,1.9761,0.53863,0.44525,0.18935,0.12702
0.083755,3.5798,1.6693,-0.079486,0.98792,13.978,26.843,-0.030178,2.7033,6.0784,1.0978,40.729,28.637,44.443,0.88201,5.1844,31.324,1.9022,0.58739,0.41443,0.19139,0.13387
0.084646,3.5706,1.416,0.087177,1.0155,14.021,27.402,-0.16691,2.8024,6.5963,1.0632,42.256,28.364,46.392,0.8535,4.9258,31.343,1.881,0.61912,0.36019,0.21743,0.12638
0.080036,3.6084,1.6872,0.35708,1.0525,13.964,28.097,-0.41875,3.037,7.232,1.0268,44.245,28.449,48.938,0.82518,4.573,30.891,1.9324,0.63301,0.30277,0.25815,0.10757
0.071586,3.6799,2.5679,0.68574,1.0781,13.805,28.767,-0.70964,3.3633,7.8672,0.99514,46.307,28.672,51.402,0.80492,4.3827,30.129,2.0294,0.63564,0.25941,0.29826,0.08157
0.060871,3.7568,3.1439,1.003,1.0825,13.558,29.264,-0.92092,3.7096,8.379,0.9758,48.043,28.866,53.387,0.79649,4.2799,29.279,2.1462,0.63534,0.24563,0.32363,0.053125
0.048948,3.8155,3.6391,1.2282,1.0666,13.241,29.472,-0.96047,4.0053,8.665,0.96048,49.127,29.407,54.817,0.80187,4.4178,28.568,2.2631,0.63519,0.27992,0.32748,0.027697
0.037134,3.8469,4.0481,1.2939,1.0363,12.877,29.321,-1.0169,4.1952,8.6426,0.93837,49.386,30.146,55.574,0.81925,4.4623,28.187,2.3588,0.63623,0.37161,0.31232,0.011348
0.027564,3.8591,3.9147,1.1712,0.99997,12.503,28.811,-1.2586,4.2472,8.3499,0.91341,48.875,31.254,55.55,0.84119,4.5759,28.255,2.4099,0.64193,0.51638,0.28717,0.0096058
0.023777,3.8696,3.608,0.88718,0.96617,12.158,28.019,-1.3916,4.1625,7.8026,0.89889,47.823,32.283,54.751,0.86254,4.7445,28.797,2.4164,0.65557,0.68145,0.26331,0.024294
0.029357,3.8909,2.9021,0.51935,0.93924,11.859,27.135,-1.534,3.9798,7.089,0.90152,46.498,32.814,53.357,0.88125,4.6701,29.658,2.3828,0.67937,0.82908,0.25065,0.050097
0.045228,3.9273,2.3695,0.16869,0.91702,11.6,26.401,-1.5138,3.7636,6.2725,0.91321,45.128,32.901,51.775,0.89475,4.5274,30.5,2.3399,0.71243,0.93879,0.25493,0.078744
0.069507,3.9767,2.3362,-0.068905,0.89416,11.397,26.003,-1.7365,3.5803,5.8236,0.91752,43.937,32.664,50.539,0.89981,4.5529,31.076,2.2746,0.75222,1.0027,0.27551,0.10495
0.099352,4.0358,2.3696,-0.1266,0.86443,11.289,26.043,-1.8993,3.4752,5.6106,0.90132,43.194,32.205,50.066,0.8955,4.5621,31.427,2.2608,0.79575,1.023,0.30337,0.12604
0.13017,4.1021,2.6394,0.015449,0.83315,11.289,26.527,-1.7953,3.465,5.7212,0.86482,43.111,31.582,50.39,0.88444,4.4887,31.767,2.2986,0.83622,1.0068,0.32249,0.13956
0.15569,4.1682,3.2641,0.32769,0.81943,11.363,27.309,-1.73,3.5437,6.3764,0.82549,43.718,30.841,51.289,0.87094,4.4461,32.219,2.3012,0.86467,0.96364,0.31849,0.14306
0.17072,4.2258,4.0319,0.74352,0.81168,11.47,28.256,-1.6099,3.6953,6.9738,0.81668,44.93,30.057,52.552,0.85885,4.4334,32.673,2.3132,0.87531,0.90072,0.28861,0.13586
0.17293,4.2745,4.4785,1.1783,0.79872,11.587,29.299,-1.5101,3.8996,7.4789,0.84809,46.576,29.38,54.012,0.8502,4.3422,32.963,2.3575,0.869,0.8172,0.24476,0.11989
0.16334,4.319,4.5243,1.5542,0.77656,11.676,30.234,-1.4378,4.1308,8.1344,0.88893,48.295,29.084,55.516,0.84494,4.1231,32.993,2.4962,0.85095,0.71514,0.20899,0.098851
0.14573,4.3599,4.1884,1.8233,0.74628,11.702,30.762,-1.441,4.3507,8.7735,0.91781,49.651,29.186,56.861,0.84316,3.9481,32.731,2.5838,0.82452,0.61547,0.20251,0.076702
0.12463,4.3878,4.0316,1.9716,0.71781,11.675,30.71,-1.4633,4.5139,9.2179,0.92664,50.368,29.392,57.829,0.84727,3.8751,32.197,2.6329,0.79122,0.54698,0.23395,0.056628
0.10299,4.3904,3.9011,2.0065,0.70951,11.643,30.113,-1.5501,4.5884,9.4122,0.91243,50.417,29.539,58.314,0.85947,3.7581,31.424,2.6303,0.75323,0.52156,0.29615,0.041033
0.082156,4.3665,3.7991,1.9453,0.70836,11.636,29.147,-1.6909,4.5629,9.3646,0.87852,49.95,29.577,58.311,0.87684,3.7701,30.563,2.6096,0.71375,0.53443,0.37174,0.031812
0.063982,4.3304,3.6545,1.811,0.70022,11.616,28.03,-1.7329,4.4434,9.1186,0.83608,49.127,29.566,57.877,0.89468,3.8184,29.872,2.5826,0.67956,0.57219,0.44093,0.030098
0.051083,4.3002,3.4974,1.6306,0.68863,11.551,26.976,-1.7864,4.2543,8.7506,0.80548,48.047,29.484,57.084,0.91055,4.0119,29.402,2.5931,0.65873,0.6212,0.48831,0.035477
0.045576,4.2832,3.8035,1.4383,0.67766,11.421,26.201,-1.9204,4.0404,8.3428,0.81241,46.813,29.233,56.069,0.92214,4.1765,29.126,2.6216,0.65408,0.66924,0.50768,0.045493
0.047345,4.2752,4.0941,1.2731,0.67117,11.228,25.837,-2.0031,3.8605,7.9825,0.87568,45.593,28.822,55.192,0.92677,4.3288,29.02,2.6423,0.66604,0.70184,0.50307,0.056077
0.052994,4.2689,3.9278,1.1664,0.6687,11.014,25.79,-2.0038,3.772,7.7357,0.99207,44.593,28.32,55.259,0.92273,4.4767,28.973,2.664,0.69104,0.71015,0.48611,0.062688
0.057943,4.254,3.8166,1.1304,0.66892,10.794,25.995,-1.9908,3.8089,7.6549,1.1308,43.965,27.777,56.756,0.90933,4.4996,28.82,2.6483,0.72136,0.69579,0.46993,0.062169
0.059664,4.2188,3.3243,1.1611,0.66834,10.543,26.379,-1.9785,3.9611,7.7794,1.2464,43.752,27.549,59.029,0.8863,4.5596,28.447,2.5947,0.74938,0.66373,0.46347,0.054266
0.058591,4.1554,2.9663,1.2464,0.65806,10.214,26.754,-2.0301,4.1827,8.1213,1.3042,43.893,27.131,61.361,0.85479,4.5885,27.853,2.4819,0.76992,0.6125,0.46866,0.041677
0.057392,4.0673,2.7469,1.3636,0.63091,9.8171,26.961,-2.0269,4.4135,8.6096,1.2954,44.231,26.216,63.226,0.81779,4.5417,27.104,2.3136,0.78118,0.53865,0.47868,0.029451
0.059637,3.9622,2.5555,1.4757,0.58821,9.3453,26.937,-1.9851,4.5908,9.1277,1.2398,44.593,24.997,64.247,0.77913,4.4504,26.334,2.1087,0.78373,0.44668,0.47879,0.023499
0.066577,3.8477,2.6423,1.5348,0.5375,8.8836,26.684,-1.9814,4.6698,9.5437,1.1621,44.822,23.881,64.284,0.74289,4.1487,25.726,1.9198,0.77944,0.35083,0.45354,0.027749
0.076792,3.7231,2.8162,1.4941,0.48635,8.4163,26.182,-2.0025,4.636,9.723,1.0751,44.744,22.785,63.472,0.71342,3.7603,25.423,1.8624,0.77041,0.26978,0.39658,0.04187
0.089584,3.6055,3.1334,1.3262,0.44387,8.2283,25.462,-2.0563,4.5014,9.6313,0.99651,44.255,21.767,62.162,0.69354,3.6745,25.458,1.9212,0.75723,0.22018,0.31629,0.06119
0.10495,3.4739,3.2679,1.0363,0.42982,8.1602,24.679,-2.0969,4.2923,9.2947,0.94402,43.349,21.426,60.711,0.68263,3.6547,25.74,1.9912,0.73953,0.20822,0.23476,0.078634
0.11915,3.3311,3.4419,0.66143,0.43289,8.0762,23.967,-2.1242,4.0424,8.8099,0.93414,42.073,21.536,59.306,0.67895,3.7617,26.06,2.0384,0.71777,0.22221,0.18577,0.087889
0.12553,3.1755,3.2223,0.26139,0.44353,7.9735,23.445,-2.1298,3.7885,8.2745,0.97998,40.537,21.413,58.036,0.68167,3.9954,26.212,2.0724,0.6931,0.23868,0.18921,0.085863
0.11908,3.0219,2.7592,-0.095317,0.45936,7.8143,23.137,-2.1653,3.5666,7.8762,1.0725,38.909,21.092,57.099,0.68959,4.3731,26.097,2.1134,0.66498,0.23367,0.24201,0.073398
0.10151,2.891,2.1129,-0.34941,0.47183,7.8025,22.792,-2.2331,3.3954,7.6748,1.1725,37.325,20.755,56.418,0.69994,4.6474,25.698,2.1379,0.63181,0.19319,0.31202,0.054839
0.080084,2.7928,1.5057,-0.46538,0.47777,7.5022,22.196,-2.23,3.261,7.6109,1.2275,35.856,20.353,55.659,0.70821,4.8629,25.033,2.1448,0.59453,0.11214,0.38605,0.036606
0.058338,2.7154,1.0722,-0.43754,0.47573,7.1052,21.286,-2.1845,3.1392,7.5594,1.1956,34.544,19.873,54.677,0.70987,4.9744,24.145,2.1472,0.55757,0.002171,0.41573,0.02489
0.040533,2.6306,0.66859,-0.29096,0.46329,6.5774,20.116,-2.1404,3.0144,7.5161,1.0637,33.445,19.243,53.45,0.70212,5.055,23.08,2.1572,0.52662,-0.12446,0.41426,0.023576
0.032203,2.5244,0.44582,-0.079411,0.44285,6.1728,19.223,-2.1142,2.8849,7.5045,0.85406,32.548,18.472,52.06,0.68453,4.8233,21.868,2.1858,0.50309,-0.26154,0.29058,0.033214
0.035707,2.4027,0.22928,0.12535,0.41901,5.732,18.243,-2.1086,2.7661,7.5382,0.6158,31.779,17.76,50.687,0.65811,4.4712,20.575,2.2231,0.48247,-0.39399,0.32435,0.05074
0.049092,2.2838,0.18653,0.25459,0.39492,5.4267,17.127,-2.1163,2.6768,7.5747,0.40702,31.108,17.036,49.51,0.62424,4.1385,19.341,2.2398,0.46037,-0.50808,0.42544,0.070415
0.067011,2.1798,0.41469,0.2658,0.37242,5.4344,16.755,-2.0603,2.622,7.6055,0.2783,30.507,16.329,48.551,0.58605,3.7243,18.302,2.1892,0.43659,-0.58024,0.4535,0.085995
0.083276,2.0885,0.60697,0.16081,0.35355,5.4378,16.555,-1.9401,2.5905,7.6084,0.25941,29.904,15.495,47.672,0.54992,3.398,17.497,2.0608,0.41415,-0.59125,0.38595,0.092905
0.093388,1.9963,0.62285,-0.012989,0.34425,5.525,16.994,-1.8658,2.5647,7.5715,0.34294,29.197,14.631,46.834,0.5239,3.2473,16.877,1.8379,0.39584,-0.55468,0.31076,0.089616
0.095646,1.8854,0.60374,-0.18901,0.35067,5.6167,17.597,-1.8723,2.5277,7.504,0.47714,28.208,13.811,46.073,0.51247,3.3322,16.345,1.5882,0.38023,-0.51537,0.62228,0.077749
0.090828,1.7536,0.5025,-0.31949,0.37172,5.7857,17.734,-1.7933,2.4668,7.3842,0.59275,26.819,13.46,45.28,0.51143,3.5379,15.8,1.488,0.36354,-0.47161,0.85867,0.061452
0.081958,1.6012,0.26016,-0.39526,0.40013,6.0598,17.617,-1.5138,2.3755,7.1781,0.64313,24.999,13.055,44.309,0.51105,3.7414,15.121,1.3845,0.3437,-0.45822,1.0455,0.046138
0.073646,1.4281,0.092392,-0.43844,0.43301,6.2028,17.459,-1.2694,2.2581,6.8836,0.62278,23.023,12.351,43.136,0.50305,3.8673,14.3,1.2571,0.32099,-0.4826,1.14,0.036337
0.069567,1.2556,0.017747,-0.4797,0.46469,6.211,17.007,-1.0221,2.1322,6.4945,0.55973,21.024,11.78,41.693,0.4839,3.9228,13.534,1.2058,0.29803,-0.51189,1.1444,0.033713
0.06847,1.0983,-0.13348,-0.53414,0.48,6.1535,16.235,-0.84758,2.021,6.0691,0.49508,19.498,11.323,40.013,0.45569,4.0435,13.11,1.2869,0.2781,-0.53057,1.0381,0.036341
0.065926,0.9827,-0.11534,-0.58936,0.47035,5.8598,15.029,-0.8418,1.9397,5.6822,0.46317,18.41,10.532,37.929,0.42302,3.9675,13.144,1.3618,0.26011,-0.59547,0.8575,0.039816
0.059179,0.89897,-0.1103,-0.61224,0.42833,5.3992,13.897,-0.89251,1.8859,5.5252,0.47475,17.378,9.6093,35.906,0.39201,3.7144,13.431,1.4351,0.24214,-0.64143,0.60728,0.039871
0.04852,0.82191,-0.084492,-0.56601,0.35943,4.9767,13.052,-1.0572,1.8444,5.5173,0.50679,16.563,8.282,34.08,0.36975,3.5045,13.756,1.4619,0.22458,-0.69737,0.36374,0.034525
0.036516,0.79012,0.10649,-0.42816,0.3048,4.4767,12.535,-1.0139,1.8028,5.4509,0.51924,16.354,7.4352,32.117,0.35974,3.4452,14.04,1.4828,0.2072,-0.76926,0.082361,0.024783
0.025875,0.77374,0.14784,-0.20345,0.23145,4.297,12.495,-1.063,1.7563,5.4321,0.48193,16.192,6.9422,30.542,0.36052,3.6603,14.174,1.4596,0.18803,-0.84884,0.16826,0.013809
0.017555,0.75485,0.060965,0.07688,0.20484,4.2679,12.396,-1.044,1.702,5.3879,0.39091,15.471,6.2476,29.217,0.36825,3.8575,14.013,1.417,0.16542,-0.92114,0.3586,0.0049747
0.011244,0.71449,-0.010775,0.37054,0.21237,4.0966,12.683,-0.67344,1.6338,5.2738,0.27711,14.508,6.2173,28.665,0.37877,4.0685,13.5,1.3603,0.14062,-0.97461,0.40764,8.5069e-05
0.0042482,0.64362,-0.042232,0.63882,0.23874,4.1105,13.138,-0.34861,1.5475,5.1253,0.19685,13.338,5.681,28.879,0.38853,4.0867,12.675,1.3107,0.1177,-1.02,0.43311,-0.0011015
-0.0036737,0.5403,-0.14227,0.85106,0.27463,4.1088,13.107,-0.17976,1.447,4.939,0.19534,12.083,5.2259,28.622,0.39528,4.1713,11.628,1.279,0.10076,-1.0446,0.41909,-0.00011147
-0.0162,0.4138,-0.27462,0.98583,0.31191,4.1432,12.769,0.22038,1.3434,4.7468,0.27363,10.969,5.4695,28.252,0.39594,4.1435,10.563,1.2683,0.091428,-1.0596,0.50989,0.0016093
-0.033011,0.28262,-0.24168,1.0326,0.34491,4.1799,12.352,0.69176,1.2476,4.7076,0.39815,9.9331,4.9183,27.478,0.38829,3.7808,9.7553,1.2764,0.091116,-1.0353,0.38499,0.0038168
-0.045126,0.16753,-0.14771,0.9941,0.36851,4.0871,11.755,0.92352,1.1644,4.5917,0.53063,9.0545,5.196,26.415,0.37514,3.4372,9.313,1.2939,0.099685,-1.026,0.36869,0.0074418
-0.029071,0.074428,-0.034443,0.89262,0.37827,3.946,11.088,1.0111,1.0932,4.4404,0.64463,8.51,5.6562,25.176,0.36273,3.0532,9.0626,1.3037,0.1154,-1.0162,0.4549,0.013421
-0.004574,0.0095806,-0.054291,0.7735,0.37125,3.7494,10.432,1.0647,1.0354,4.4726,0.73432,8.331,5.836,23.616,0.35133,2.8237,8.8099,1.2925,0.13172,-1.0202,0.66476,0.021401
0.021295,-0.035043,-0.016851,0.69323,0.3494,3.6066,9.9451,1.0017,0.99363,4.4956,0.80686,8.3947,6.043,22.271,0.34043,2.4956,8.5044,1.2575,0.14253,-1.0434,0.87209,0.029491
0.049398,-0.0059649,0.19645,0.69587,0.31801,3.5149,9.5813,1.0412,0.96599,4.1882,0.85121,8.4024,5.8174,21.344,0.33469,2.5255,8.1924,1.2025,0.14038,-1.0786,0.97903,0.035407
0.046282,0.058062,0.28898,0.79715,0.28334,3.3411,9.6436,0.88721,0.95508,4.2061,0.84749,8.1933,5.8512,20.482,0.3382,2.9114,7.9269,1.1337,0.144,-1.1299,1.744,0.037935
0.090391,0.10733,0.35278,0.98066,0.24948,3.1573,9.7244,0.94831,0.96585,4.204,0.79173,7.785,5.7023,20.757,0.34869,3.1389,7.7025,1.0595,0.15071,-1.1998,2.4237,0.037335
0.13032,0.1793,0.45483,1.2014,0.21769,2.9502,9.5511,1.1054,0.99398,4.1126,0.69226,7.5144,5.2947,21.109,0.35836,3.2889,7.5163,0.98589,0.14171,-1.2766,2.9324,0.03449
0.14127,0.18851,0.52851,1.3984,0.18588,2.8374,9.354,1.1435,1.0266,4.2583,0.56434,7.4449,4.7412,21.696,0.35992,3.3683,7.4598,0.91648,0.14872,-1.3275,3.2073,0.030181
0.1239,0.16706,0.63583,1.5112,0.15238,2.7881,8.783,1.4257,1.0491,4.2267,0.4276,7.2553,4.2368,22.374,0.34929,3.3354,7.5814,0.85076,0.17144,-1.3582,3.2771,0.025218
0.059404,0.15069,0.62802,1.4918,0.11851,2.5731,8.0044,1.4517,1.0491,4.0334,0.30466,6.8637,3.8699,22.502,0.32967,3.168,7.7775,0.78515,0.18056,-1.3648,3.0711,0.020676
0.019617,0.094066,0.55661,1.3186,0.091456,2.4225,7.0607,1.3441,1.019,3.8922,0.21733,6.4203,3.8308,22.231,0.30977,2.9881,7.9436,0.71888,0.18061,-1.362,2.7175,0.017806
0.06745,0.015312,0.48347,1.0142,0.074915,2.5616,6.6099,1.2859,0.95942,3.7345,0.17806,6.0437,3.9201,21.822,0.29517,2.7059,8.04,0.66234,0.15962,-1.3485,2.0539,0.01787
0.069031,-0.084731,0.47219,0.64539,0.069674,2.5781,6.2679,1.1727,0.88175,3.7194,0.17479,6.0843,3.8375,21.299,0.28582,2.6169,8.0002,0.63782,0.12659,-1.3211,1.5527,0.021722
0.062735,-0.15456,0.57475,0.30498,0.10402,2.4889,5.9461,1.037,0.80759,3.5874,0.17962,6.3364,3.5699,20.516,0.28124,2.6355,7.7494,0.66849,0.062704,-1.2947,1.2299,0.02934
0.046205,-0.2102,0.42328,0.082167,0.13149,2.3263,5.4736,0.86275,0.76263,3.2708,0.17615,6.6058,3.2306,19.577,0.2827,2.6685,7.3069,0.75009,0.030648,-1.2745,0.88651,0.039857
0.14004,-0.24175,0.36301,0.023209,0.15055,2.0848,4.8518,0.56574,0.76654,2.8457,0.1635,6.6358,2.8657,18.744,0.28948,2.7737,6.7243,0.85245,0.063726,-1.2776,0.65485,0.051749
0.337,-0.27106,0.47919,0.096719,0.14594,1.9593,4.4045,0.65348,0.82277,2.8046,0.14449,6.2441,2.4924,18.508,0.29545,2.8748,6.0414,0.94927,0.10007,-1.255,0.31572,0.062618
0.46816,-0.2706,0.48219,0.20369,0.14401,1.7455,4.1549,0.92606,0.91539,2.8912,0.11885,5.5466,2.0873,18.396,0.29361,3.0639,5.3291,1.0193,0.11664,-1.212,0.60367,0.069385
0.55367,-0.21085,0.40113,0.23207,0.17851,1.3507,3.7756,1.0349,1.0183,2.7891,0.086618,4.8486,2.0187,18.546,0.28049,3.0502,4.7105,1.0441,0.082192,-1.1974,0.90713,0.069314
0.54018,-0.17119,0.21035,0.11003,0.19249,1.2888,3.4193,0.96175,1.1062,2.9152,0.051133,4.3198,2.2603,18.5,0.25436,2.9647,4.2878,1.0161,0.18619,-1.2565,1.0337,0.061072
0.60573,-0.15437,0.26524,-0.16839,0.20088,1.1157,3.2183,0.80313,1.1586,3.1856,0.016624,3.7528,2.4491,17.97,0.21878,2.7851,4.0486,0.94071,0.29833,-1.2873,1.0498,0.045361
0.63298,-0.17228,0.40743,-0.54618,0.2004,1.0587,3.2691,1.1026,1.1605,3.3391,-0.014115,3.4282,2.5008,17.336,0.18363,2.7022,3.9695,0.83355,0.3614,-1.1411,1.182,0.025093
0.5964,-0.22282,0.59575,-0.93224,0.19262,1.0317,3.4208,1.4562,1.1055,3.3375,-0.038514,3.4619,2.5439,16.965,0.16032,2.4722,3.9932,0.72054,0.39973,-1.0699,1.1214,0.004802
0.46708,-0.24659,0.72558,-1.2429,0.17347,1.0518,3.604,1.6714,0.99915,3.1958,-0.053142,3.4954,2.8835,16.754,0.15771,2.3403,4.1431,0.63291,0.40452,-1.0528,0.97766,-0.010908
0.4236,-0.2817,0.76859,-1.4369,0.14359,1.0392,3.92,1.6065,0.85956,2.9876,-0.054574,3.3092,3.0008,16.614,0.17021,2.336,4.2288,0.59212,0.39028,-1.1738,0.70225,-0.019252
0.61602,-0.31094,0.8163,-1.5296,0.10516,0.92096,3.8358,1.509,0.71305,2.6858,-0.041676,3.4451,3.1201,16.739,0.18409,2.382,4.4126,0.60002,0.35443,-1.1383,0.43366,-0.020189
0.77409,-0.32677,0.80141,-1.5698,0.061607,0.89173,3.6791,1.5423,0.58525,2.3296,-0.019132,3.3511,2.8926,16.707,0.19212,2.4735,4.5465,0.62247,0.30984,-1.0552,0.20183,-0.015844
0.94158,-0.33238,0.70436,-1.5946,0.021597,0.91896,3.4917,1.5135,0.49179,2.1088,0.0021965,3.0947,2.7204,16.448,0.19088,2.3206,4.6765,0.62757,0.25221,-0.88004,0.25323,-0.0090733
1.0573,-0.33639,0.60149,-1.6005,0.03372,0.95978,3.2373,1.5745,0.43147,2.0741,0.010735,2.6519,2.531,15.676,0.18173,2.2794,4.6144,0.58704,0.1961,-0.75584,0.20891,-0.0022442
1.1087,-0.33862,0.48448,-1.5507,0.053001,1.1099,2.9527,1.4273,0.3881,1.8643,0.0002997,1.9597,2.0982,14.946,0.17002,2.1558,4.3439,0.53107,0.11568,-0.69915,0.25013,0.0032903
1.0784,-0.3345,0.47792,-1.4023,0.063937,1.0961,2.6685,1.4957,0.34386,1.6551,-0.028991,1.1793,1.7501,14.284,0.16287,1.9977,4.0851,0.46962,0.12601,-0.74798,0.51215,0.0072069
0.9697,-0.35627,0.70876,-1.1342,0.07901,1.0821,2.3072,2.0229,0.29386,1.5979,-0.073495,0.48125,1.3536,13.707,0.16599,1.7691,3.8833,0.33065,0.13243,-0.7975,0.55983,0.009913
0.83089,-0.36426,0.75494,-0.76307,0.12883,0.96997,1.9214,2.3344,0.24959,1.7137,-0.12683,0.0055278,1.054,13.531,0.18089,1.5629,3.7949,0.26575,0.085228,-0.56588,0.57021,0.011971
0.59371,-0.37678,0.75332,-0.34157,0.15692,0.84354,1.5699,2.5371,0.22842,1.7631,-0.17826,-0.11107,0.83707,12.999,0.20603,1.5967,3.8812,0.26863,0.1151,-0.41307,0.65523,0.013509
0.44886,-0.40742,0.71308,0.065692,0.16606,0.78462,1.6105,2.7684,0.23954,1.7293,-0.21236,0.060124,0.88428,12.216,0.23637,1.5063,4.1605,0.26268,0.1309,-0.30117,0.69306,0.014128
0.48824,-0.46006,0.65708,0.4065,0.15391,0.72407,1.9749,2.6716,0.28041,1.8713,-0.21751,0.3493,0.98916,11.749,0.26491,1.6964,4.4183,0.38547,0.14028,-0.24138,0.66135,0.013338
0.42576,-0.52782,0.52859,0.65316,0.13102,0.67135,2.2313,2.6298,0.34043,2.1918,-0.19753,0.56502,1.2378,11.631,0.28362,2.0284,4.5006,0.48211,0.14185,-0.23975,0.61598,0.011277
0.29474,-0.58663,0.38083,0.80584,0.1098,0.58839,2.4395,2.4881,0.40546,2.3174,-0.16208,0.58619,1.3884,11.553,0.28488,2.3014,4.2423,0.55668,0.13826,-0.32025,0.54019,0.0092466
0.19765,-0.63675,0.17892,0.88886,0.091552,0.57458,2.6102,2.277,0.46348,2.2451,-0.11574,0.49952,1.3872,11.608,0.264,2.4601,3.761,0.58696,0.1308,-0.48902,0.42455,0.0093686
0.22287,-0.67608,-0.058885,0.93888,0.074062,0.57712,2.6427,1.9533,0.5087,1.9717,-0.061381,0.23631,1.1528,11.127,0.223,2.4195,3.4703,0.57849,0.11911,-0.64186,0.44042,0.013257
0.23572,-0.70393,0.013579,0.99438,0.062269,0.52686,2.4382,1.745,0.54095,1.9335,-0.0037345,-0.025468,0.93431,10.439,0.17135,2.1727,2.7963,0.53002,0.10274,-1.0025,0.30282,0.020866
0.16695,-0.71635,0.011921,1.0888,0.059906,0.49808,2.3963,1.7116,0.56154,1.9834,0.050778,-0.33054,0.84559,9.6574,0.13965,1.9107,2.3936,0.45817,0.084787,-1.0949,0.31908,0.030546
0.12737,-0.70759,-0.093877,1.2387,0.062255,0.48119,2.2637,1.9955,0.56927,1.9981,0.096405,-0.56241,0.87217,9.2614,0.12179,1.6452,2.4352,0.36718,0.089792,-0.84671,0.28573,0.039883
0.13104,-0.68157,-0.1181,1.4307,0.067175,0.46022,2.2144,2.3334,0.55986,1.7849,0.12972,-0.38735,0.89794,8.928,0.10646,1.4935,2.5756,0.3046,0.10228,-0.89365,0.55663,0.046502
0.11431,-0.65243,0.011972,1.623,0.079816,0.48931,2.2689,2.6268,0.52888,2.0352,0.14897,-0.41295,0.82718,8.743,0.10163,1.6161,2.8238,0.26654,0.10365,-1.1123,0.96392,0.048615
0.09943,-0.62976,0.048209,1.7632,0.085375,0.54065,2.2185,2.9006,0.47557,2.2917,0.15235,-0.42687,0.81408,9.0455,0.10912,1.81,3.0542,0.23682,0.094419,-1.1529,1.274,0.04531
0.085791,-0.62229,0.074101,1.811,0.078261,0.63532,2.1096,3.0633,0.40602,2.4952,0.13778,-0.31999,0.73351,9.3222,0.12891,1.9854,3.2572,0.24509,0.071861,-0.99568,1.5526,0.03694
0.065433,-0.641,0.0080249,1.7578,0.061292,0.80182,2.2307,3.1979,0.33423,2.7486,0.10502,-0.29027,0.61635,9.6236,0.15413,2.0945,3.3856,0.32552,0.039102,-0.94998,1.7477,0.025631
0.079332,-0.67772,-0.062675,1.6313,0.038696,0.92835,2.3847,3.2918,0.2792,2.691,0.059767,-0.6477,0.45491,9.3623,0.17517,2.1867,3.4371,0.40178,0.0017619,-1.0077,1.8872,0.014937
0.11359,-0.72007,-0.1207,1.4795,0.032852,0.95,2.4527,3.0657,0.25786,2.7807,0.016098,-0.77325,0.25604,8.7375,0.18304,2.1886,3.393,0.44908,-0.023748,-1.0688,1.9364,0.0081278
0.11126,-0.77458,-0.14289,1.3478,0.039358,0.93456,2.381,3.0343,0.27694,2.953,-0.0061382,-1.0123,-0.0032798,8.723,0.17034,2.0375,3.2716,0.46139,-0.032858,-1.1031,1.8947,0.0064297
0.086582,-0.83624,-0.17623,1.2624,0.049607,0.83498,2.1522,2.8826,0.32842,2.8142,0.0097697,-1.1119,-0.042372,8.0082,0.13942,1.7293,3.1071,0.42745,-0.033232,-1.2158,1.7221,0.0089528
0.028019,-0.90563,-0.22388,1.2249,0.044511,0.68047,1.8084,2.7472,0.39275,2.6547,0.066169,-1.0065,0.090726,7.2,0.092335,1.3916,2.9237,0.3674,-0.025955,-1.2493,1.456,0.013871
0.020953,-0.9619,-0.30334,1.2162,0.065074,0.51759,1.428,2.9029,0.44782,2.5582,0.14622,-1.0693,0.19954,7.1752,0.047825,1.2386,2.7259,0.28806,-0.012871,-1.2956,1.0559,0.019268
0.0067942,-0.99789,-0.26547,1.2109,0.10863,0.41304,1.123,2.7241,0.47726,2.1365,0.22108,-1.2862,0.20572,7.2105,0.021177,1.173,2.5228,0.20192,0.0033064,-1.295,0.7273,0.023533
-0.042425,-1.0073,-0.29525,1.1898,0.13946,0.26289,0.99504,2.7264,0.47439,1.7911,0.26316,-1.5639,0.28162,6.9917,0.018473,1.3212,2.3305,0.11543,0.019065,-1.1689,0.59616,0.025815
-0.037411,-0.99383,-0.31506,1.1426,0.1509,0.15435,0.95471,2.7852,0.44281,1.5715,0.25677,-1.8986,0.37407,6.8713,0.035317,1.3505,2.1447,0.0982,0.030854,-1.2067,0.66104,0.026547
-0.0090275,-0.96817,-0.27664,1.0687,0.18232,0.050229,0.90745,2.9253,0.39461,1.4307,0.20384,-2.1788,0.37013,6.9071,0.053763,1.4781,1.9307,0.12783,0.034935,-1.2585,0.68494,0.027404
0.030285,-0.94512,-0.287,0.97679,0.19856,0.25494,1.0424,3.1052,0.34702,1.2898,0.12328,-2.4291,0.32869,6.6403,0.066753,1.6281,1.6631,0.16191,0.028935,-1.4187,0.62614,0.030138
0.099613,-0.93524,-0.30853,0.87986,0.19466,0.43998,1.4914,2.9986,0.31754,1.3957,0.044226,-2.5178,0.23022,5.7674,0.066285,1.8172,1.3727,0.12988,0.012312,-1.5128,0.44749,0.035016
0.1357,-0.94295,-0.3353,0.79178,0.19054,0.49073,1.8015,2.8603,0.31835,1.5696,-0.005125,-2.6133,0.06039,5.471,0.053783,1.8212,1.1278,0.13244,-0.013679,-1.5606,0.44886,0.040445
0.13877,-0.96479,-0.33356,0.72824,0.18374,0.46679,1.8499,2.8223,0.3515,1.5726,-0.0087509,-2.5069,-0.085459,5.0072,0.032865,1.6799,0.98029,0.1748,-0.045806,-1.6276,0.54876,0.044176
0.14212,-0.99277,-0.33115,0.7036,0.18608,0.3903,1.6462,2.8788,0.40669,1.6053,0.030508,-2.155,-0.22443,4.285,0.011088,1.6305,0.96484,0.17541,-0.078359,-1.6746,0.47217,0.044738
0.13786,-1.0193,-0.31845,0.72472,0.18839,0.39875,1.3974,3.0549,0.46501,1.7453,0.090957,-1.8821,-0.42293,3.651,-0.0045749,1.6361,1.1228,0.15931,-0.10279,-1.7285,0.46559,0.041991
0.13448,-1.0418,-0.33478,0.79021,0.20265,0.32411,1.2371,3.2184,0.50793,1.7926,0.14111,-1.677,-0.4821,3.4854,-0.0093208,1.596,1.4847,0.13149,-0.11037,-1.761,0.59909,0.036991
0.10029,-1.0577,-0.35459,0.89074,0.23212,0.15201,0.86282,3.392,0.52452,1.6973,0.15535,-1.6805,-0.42011,3.342,-0.000759,1.6319,2.0161,0.10083,-0.097882,-1.7509,0.68076,0.031533
0.080227,-1.0648,-0.3659,1.0066,0.24521,-0.078152,0.53408,3.5638,0.51432,1.594,0.12574,-1.7954,-0.30564,3.0572,0.020054,1.7021,2.5634,0.07708,-0.069129,-1.7158,0.78244,0.027403
0.090114,-1.051,-0.35742,1.1089,0.23496,-0.3123,0.53606,3.6138,0.48656,1.4748,0.063652,-1.9155,-0.11637,3.3634,0.046425,1.7174,2.9152,0.063485,-0.032547,-1.6934,0.87466,0.025579
0.059559,-1.0235,-0.34708,1.1658,0.22874,-0.46884,0.48829,3.5771,0.45575,1.545,-0.0073622,-2.1268,0.034592,4.3473,0.070267,1.787,2.9391,0.055245,0.001522,-1.6782,0.92659,0.025693
0.031153,-1.007,-0.35629,1.1475,0.23841,-0.5669,0.31403,3.5365,0.43495,1.8252,-0.061959,-2.2864,0.097371,5.2246,0.085925,1.7429,2.6319,0.022253,0.024338,-1.676,0.93051,0.026141
0.017824,-1.0102,-0.34412,1.0351,0.20787,-0.57756,0.24066,3.4332,0.42912,2.0937,-0.082263,-2.0982,0.066156,6.3577,0.09048,1.6457,2.1021,0.00060785,0.030457,-1.6446,0.90889,0.025062
-0.0012179,-1.0289,-0.33143,0.83115,0.16023,-0.49776,0.67937,3.396,0.4326,2.3483,-0.065059,-1.9802,-0.052085,7.2222,0.083731,1.4163,1.5127,0.042743,0.019531,-1.6338,0.87784,0.021683
0.0072528,-1.0504,-0.36162,0.56231,0.15131,-0.44357,1.0372,3.6177,0.433,2.3867,-0.023871,-1.9768,-0.22832,7.5134,0.070626,1.2737,1.0011,0.032812,-0.0021179,-1.6395,0.84493,0.016916
-0.00075165,-1.074,-0.39573,0.27161,0.13285,-0.39024,1.3234,4.0158,0.41844,2.3189,0.017884,-1.896,-0.45304,7.137,0.061636,1.2505,0.6226,0.0040081,-0.013904,-1.6611,0.81059,0.012602
-0.005823,-1.0942,-0.37218,0.0095691,0.12052,-0.2529,1.6428,4.3738,0.38271,2.3275,0.038945,-1.8957,-0.67355,6.3104,0.063208,1.3924,0.36178,-0.00045754,-0.0090355,-1.6952,0.78095,0.010176
-0.0050327,-1.0975,-0.35428,-0.17844,0.11902,-0.19528,1.8472,4.5936,0.32706,2.1847,0.029229,-1.9153,-0.83594,5.2811,0.073718,1.5428,0.18401,0.048248,0.0045698,-1.7169,0.77508,0.0099212
0.014613,-1.1023,-0.33228,-0.2684,0.14019,-0.14329,1.9647,4.5282,0.25868,1.681,-0.0087526,-2.0901,-0.90364,4.0337,0.087706,1.7112,0.083881,0.074709,0.024843,-1.6963,0.76332,0.011152
0.068418,-1.0857,-0.30582,-0.26667,0.20563,-0.12874,1.8925,4.4932,0.1876,1.2801,-0.064427,-2.4451,-0.90438,2.9097,0.099727,1.9384,0.04604,0.082243,0.048044,-1.6934,0.73132,0.012768
0.11928,-1.0786,-0.27941,-0.20532,0.24489,-0.16094,1.6895,4.4807,0.12479,0.88322,-0.12518,-2.9944,-0.85773,2.0108,0.10662,2.0703,-0.034848,0.14748,0.06921,-1.6869,0.64508,0.013783
0.17853,-1.0918,-0.26275,-0.12755,0.25009,-0.21349,1.4178,4.1591,0.080867,0.60032,-0.1806,-3.5088,-0.88662,2.0147,0.10688,2.1364,-0.21867,0.18795,0.082491,-1.6779,0.58711,0.013607
0.22335,-1.1052,-0.26331,-0.069003,0.26079,-0.28768,1.0168,3.8152,0.062854,0.66637,-0.22425,-3.9083,-0.84464,1.7907,0.10113,2.0688,-0.44313,0.20451,0.083187,-1.6803,0.62609,0.012079
0.23878,-1.119,-0.27696,-0.044101,0.24723,-0.35714,0.75278,3.8693,0.069185,0.64449,-0.2537,-4.1245,-0.71588,1.4338,0.091819,2.0351,-0.59205,0.19224,0.067923,-1.7065,0.76875,0.0096246
0.23525,-1.1436,-0.30821,-0.046876,0.19642,-0.44604,0.46758,3.9044,0.091208,0.68707,-0.26993,-4.2226,-0.65749,1.2011,0.081617,1.9714,-0.57758,0.2068,0.037814,-1.7495,0.93422,0.0074142
0.23271,-1.1598,-0.34333,-0.060952,0.1496,-0.52329,0.39311,3.7829,0.12042,0.60707,-0.27652,-4.2545,-0.60074,1.0754,0.071931,1.9112,-0.37381,0.18512,0.0022868,-1.7658,1.0708,0.0071808
0.21521,-1.1658,-0.40556,-0.067619,0.11466,-0.50189,0.35329,3.6492,0.15118,0.46028,-0.27761,-4.1215,-0.57494,1.0991,0.061966,1.8963,-0.017455,0.1694,-0.019052,-1.7783,1.1865,0.010505
0.18382,-1.1585,-0.41117,-0.053066,0.091875,-0.44257,0.29477,3.6704,0.17881,0.48636,-0.27487,-3.869,-0.55911,1.4711,0.049629,1.8282,0.3961,0.18972,-0.013657,-1.778,1.2438,0.017783
0.13552,-1.1281,-0.39792,-0.015301,0.097263,-0.41847,0.44858,3.5619,0.19835,0.63772,-0.26554,-3.7154,-0.56425,1.6798,0.034381,1.7109,0.76314,0.16976,0.0084029,-1.7541,1.2482,0.027671
0.075812,-1.0825,-0.41122,0.036792,0.11238,-0.38138,0.5574,3.4752,0.20569,0.6977,-0.24348,-3.528,-0.58636,2.0276,0.018314,1.5987,1.0159,0.12826,0.035304,-1.7109,1.1277,0.037381
0.025575,-1.0396,-0.45257,0.090753,0.10878,-0.33076,0.75574,3.4398,0.19958,0.69494,-0.20461,-3.4415,-0.62358,2.3236,0.0046564,1.4701,1.1337,0.12569,0.053635,-1.6923,1.0458,0.043675
-0.0029683,-1.0167,-0.44788,0.13599,0.1444,-0.32585,0.89207,3.7739,0.18268,0.6617,-0.15268,-3.3914,-0.68091,2.4751,-0.0019319,1.481,1.131,0.1405,0.061127,-1.666,0.93499,0.044181
