0,0,0,0,0,0,0,0,0,0,0,0,0,0,0,0,0,0,0,0,0,0
-0.0051939,0.00015779,-0.0044397,-0.046591,0.0094149,0.055192,-0.078964,0.35802,-0.0057288,-0.41144,-0.031781,-0.088663,0.05663,-0.30493,-0.00787,-0.095949,0.10897,-0.019501,-0.0035073,0.0055291,-0.025966,0.0016975
-0.021193,-0.0082205,0.079853,-0.090363,0.025698,0.072957,-0.22081,0.57075,-0.020891,-0.96005,-0.067711,-0.62348,0.092105,-0.81784,-0.02958,-0.26496,0.3378,0.024782,-0.004866,0.048943,-0.041728,0.005447
-0.039461,-0.026978,0.060166,-0.12942,0.047237,0.13337,-0.53401,0.95827,-0.046973,-1.6108,-0.10272,-1.4341,-0.012677,-1.3006,-0.061946,-0.39789,0.69075,0.10288,-0.0036252,0.11632,-0.04067,0.0099805
-0.052043,-0.052925,0.19196,-0.16458,0.071791,0.065292,-0.88651,1.3169,-0.078896,-2.1052,-0.13224,-1.886,-0.10147,-1.5948,-0.10142,-0.53877,1.1124,0.15062,-0.00087795,0.14737,-0.019946,0.01359
-0.064417,-0.082551,0.21577,-0.19675,0.097111,-0.033231,-1.1592,1.3733,-0.10882,-2.5915,-0.15138,-2.2757,-0.16662,-2.0432,-0.14433,-0.66986,1.5333,0.14748,0.0013567,0.1337,0.018019,0.014718
-0.078591,-0.11308,0.44581,-0.22568,0.12129,-0.084059,-1.4675,1.3688,-0.13066,-3.077,-0.15749,-2.8619,-0.038185,-2.8566,-0.18462,-0.81799,1.914,0.18821,0.0031498,0.055399,0.065632,0.012434
-0.089235,-0.14021,0.70611,-0.24895,0.14203,-0.13085,-1.6633,1.4159,-0.14314,-3.5142,-0.15397,-3.2364,0.070846,-3.5944,-0.20955,-1.062,2.2967,0.1793,0.0055143,0.11097,0.11187,0.0068069
-0.084136,-0.15876,0.86106,-0.26304,0.15703,-0.024405,-1.812,1.0762,-0.14963,-3.7771,-0.14997,-3.2597,0.059787,-3.6036,-0.21906,-1.3422,2.7791,0.22393,0.0097558,0.25555,0.14542,-0.0010107
-0.066874,-0.16044,0.94757,-0.26732,0.1651,0.010658,-1.892,0.6882,-0.15544,-3.8145,-0.15499,-2.9551,0.38635,-3.6669,-0.22198,-1.6289,3.2917,0.40948,0.011472,0.3114,0.15871,-0.009152
-0.049462,-0.13735,0.8268,-0.2661,0.16654,0.08638,-1.8905,0.44681,-0.16438,-3.7127,-0.17267,-2.5168,0.88151,-3.7162,-0.22107,-1.7979,3.7903,0.42668,0.054028,0.33349,0.15107,-0.015722
-0.040761,-0.10583,1.0086,-0.26674,0.16268,0.28135,-1.8869,0.42803,-0.17648,-3.6407,-0.19791,-2.3131,1.2788,-3.94,-0.21841,-1.813,4.2708,0.53208,0.096934,0.23745,0.12896,-0.019399
-0.041193,-0.063706,1.2692,-0.27755,0.15512,0.41602,-1.9947,0.24279,-0.18802,-3.7534,-0.21963,-2.2098,1.4946,-4.2766,-0.21552,-1.7935,4.6946,0.64838,0.13389,0.17625,0.10215,-0.019602
-0.058214,0.00079198,1.3725,-0.3051,0.14436,0.36139,-2.0885,0.18135,-0.19352,-3.7904,-0.22705,-2.16,1.7699,-4.319,-0.21337,-1.8312,5.0339,0.68489,0.14289,0.438,0.078882,-0.016409
-0.063385,0.059586,1.4403,-0.34973,0.13124,0.25249,-2.042,0.66347,-0.18889,-3.7999,-0.21573,-2.1828,2.0806,-4.253,-0.21388,-1.8688,5.307,1.134,0.18247,0.60008,0.064221,-0.01054
-0.065636,0.098723,1.6208,-0.40247,0.11854,0.11493,-2.121,0.88924,-0.17416,-3.8888,-0.19003,-2.5024,2.1889,-4.1071,-0.21811,-1.7367,5.5636,1.6997,0.23909,0.70618,0.060301,-0.0032177
-0.090381,0.15255,1.9629,-0.44611,0.1078,-0.16205,-2.2894,1.0842,-0.15401,-4.0038,-0.16129,-2.6996,2.2592,-3.9676,-0.22366,-1.6459,5.7946,2.1356,0.26638,0.74326,0.066149,0.00412
-0.098835,0.22102,2.5873,-0.45971,0.099298,-0.35842,-2.4498,1.2997,-0.1355,-4.1669,-0.14245,-2.5941,2.7713,-3.8889,-0.22649,-1.7332,5.9109,2.4536,0.28234,0.67589,0.07774,0.010054
-0.10519,0.27643,2.8553,-0.42576,0.09462,-0.47331,-2.5914,1.3802,-0.12446,-4.3193,-0.1424,-2.5859,3.4129,-3.6919,-0.22324,-1.9343,5.8496,3.035,0.28089,0.84215,0.089832,0.013498
-0.11838,0.32454,3.193,-0.33693,0.093736,-0.50858,-2.7998,1.3277,-0.1232,-4.4307,-0.16299,-2.6444,4.119,-3.3743,-0.21661,-2.1379,5.6328,3.5099,0.27248,0.99189,0.099286,0.01432
-0.13234,0.35456,3.5208,-0.19979,0.094785,-0.52863,-2.8073,1.3621,-0.13026,-4.4428,-0.19883,-2.214,4.6112,-3.1045,-0.20965,-2.1473,5.3441,3.7101,0.25684,1.0403,0.11165,0.013849
-0.14833,0.38774,3.9625,-0.037099,0.094597,-0.5545,-2.8139,1.198,-0.14182,-4.4405,-0.23825,-1.7318,5.1578,-3.0763,-0.20608,-2.2372,5.0357,3.7979,0.24335,1.0239,0.1302,0.014494
-0.15215,0.43121,4.3154,0.11259,0.096854,-0.43823,-2.8162,0.93059,-0.1538,-4.4761,-0.26612,-1.1821,5.697,-3.0966,-0.20205,-2.2777,4.843,3.987,0.2284,1.197,0.15849,0.018414
-0.14873,0.44945,4.5242,0.20646,0.1062,-0.27964,-2.8243,0.61783,-0.1635,-4.5188,-0.26983,-0.62793,6.128,-2.9583,-0.19355,-2.1821,4.87,4.2681,0.21685,1.4826,0.17762,0.026114
-0.13847,0.49517,4.9701,0.22079,0.11741,-0.10173,-2.8156,0.26902,-0.17006,-4.5507,-0.24576,-0.24894,6.2366,-2.9077,-0.18677,-2.134,5.0601,4.5833,0.19088,1.6167,0.19235,0.035937
-0.13223,0.54177,5.8062,0.16804,0.12815,0.063983,-2.6713,0.16755,-0.17412,-4.5155,-0.20211,0.014076,6.1067,-3.1682,-0.18106,-2.0613,5.482,4.9266,0.19292,1.5173,0.16814,0.044832
-0.12867,0.59075,6.5246,0.091065,0.13618,0.27499,-2.3171,0.037598,-0.17725,-4.4916,-0.15414,0.14495,6.101,-3.0446,-0.17168,-2.0617,6.194,5.4476,0.21216,1.3606,0.13455,0.049812
-0.12753,0.69874,6.8338,0.039104,0.13816,0.26478,-2.0377,-0.19331,-0.18074,-4.4775,-0.11398,0.47267,6.1838,-2.6793,-0.15672,-1.9993,7.1896,5.9967,0.19693,1.4041,0.0013076,0.049244
-0.12773,0.85681,7.0465,0.039728,0.13546,0.25247,-1.8864,-0.32534,-0.1847,-4.4997,-0.084123,0.92869,6.349,-1.8057,-0.13387,-2.0743,8.4028,6.4731,0.17924,1.5594,-0.06691,0.043294
-0.12809,1.0033,7.0577,0.081866,0.12781,0.18022,-1.4966,-0.47841,-0.18811,-4.5651,-0.058919,1.2041,6.619,-0.5104,-0.10539,-2.1905,9.7238,6.9003,0.18488,1.7506,0.12782,0.033453
-0.12732,1.1397,6.9739,0.1238,0.12156,0.28094,-1.0412,-0.37092,-0.18955,-4.5761,-0.030606,1.6352,6.9018,0.44673,-0.071472,-2.2516,11.002,7.2604,0.17722,1.8779,0.23493,0.022041
-0.12484,1.2564,6.3644,0.12205,0.10909,0.62423,-0.54438,-0.46487,-0.18791,-4.4755,0.004076,2.4038,7.0985,1.1528,-0.031022,-2.2744,12.108,7.4592,0.17863,1.9494,0.21652,0.012204
-0.12052,1.3265,5.843,0.05849,0.1214,0.94375,0.18629,-0.71918,-0.1828,-4.295,0.039771,3.2615,7.1553,1.5146,0.012678,-2.4139,12.96,7.7178,0.19788,1.7688,0.11196,0.007467
-0.11628,1.3408,5.8364,-0.050769,0.15191,1.4436,1.0213,-0.88808,-0.17481,-4.1841,0.065529,3.941,7.0603,1.8284,0.051255,-2.5231,13.495,7.8259,0.20748,1.7868,0.48568,0.010215
-0.11443,1.3008,5.6675,-0.16355,0.18382,1.8507,1.9336,-0.96638,-0.16551,-4.1021,0.072908,4.5795,6.8622,1.6074,0.075624,-2.5841,13.676,7.6401,0.20838,1.8798,0.79818,0.019968
-0.1188,1.2212,6.1439,-0.2303,0.25724,2.1771,2.4697,-0.951,-0.15698,-4.0584,0.061421,5.1377,6.6587,1.3605,0.079613,-2.5772,13.543,7.6738,0.20241,1.7512,1.0411,0.033186
-0.12722,1.1374,7.1622,-0.21516,0.33091,2.4627,3.252,-0.97947,-0.15077,-4.0614,0.037928,5.6608,6.5144,1.1435,0.062373,-2.5707,13.23,7.887,0.1936,1.6048,1.2101,0.044973
-0.12793,1.0914,7.8588,-0.10797,0.39469,2.798,4.0436,-1.0881,-0.14688,-4.071,0.013039,6.3498,6.4602,0.92625,0.02954,-2.5634,12.912,7.6004,0.18618,1.5742,1.2932,0.051097
-0.1185,1.0934,8.6578,0.075904,0.44009,3.3067,4.6406,-1.3494,-0.14343,-4.0637,-0.002136,7.1829,6.4746,1.0192,-0.0091945,-2.4899,12.779,7.1383,0.18517,1.5497,1.2871,0.049109
-0.10734,1.1165,9.4094,0.30355,0.4636,3.8592,5.4747,-1.6311,-0.13704,-4.1046,0.00050877,8.1138,6.5094,1.457,-0.042161,-2.4132,13.006,6.9086,0.19428,1.5327,1.1903,0.038724
-0.094013,1.1523,9.6456,0.53527,0.46594,4.2656,6.0457,-1.747,-0.12372,-4.0271,0.021651,9.0254,6.5134,2.5029,-0.057275,-2.4447,13.689,6.9913,0.21511,1.3169,1.0216,0.021847
-0.077969,1.1741,9.5541,0.73428,0.45298,4.4639,6.8125,-1.7905,-0.10062,-3.858,0.052224,9.9276,6.4443,3.8526,-0.047976,-2.4761,14.728,7.3941,0.24759,1.1564,0.7888,0.002053
-0.061094,1.2094,9.2677,0.87452,0.43379,4.9024,7.6612,-1.8926,-0.06863,-3.8238,0.076555,10.801,6.3047,4.9729,-0.013582,-2.4737,15.873,7.6199,0.2883,0.98044,0.51884,-0.016519
-0.046099,1.1996,8.8959,0.94545,0.41716,5.4417,9.1983,-1.9846,-0.033223,-3.702,0.080927,11.577,6.2144,5.8481,0.026601,-2.4452,16.91,7.4008,0.33063,0.74553,0.188,-0.029905
-0.035386,1.1699,8.1083,0.95235,0.41109,5.9231,10.935,-1.9687,-0.0019593,-3.4129,0.063439,12.169,6.1833,6.8486,0.056252,-2.4754,17.757,7.4872,0.37069,0.81961,0.23385,-0.034711
-0.029591,1.1682,7.69,0.91194,0.42486,6.3551,12.5,-1.97,0.018608,-3.1596,0.038166,12.559,6.157,7.856,0.068564,-2.5401,18.466,7.2107,0.40297,0.91441,0.29117,-0.029028
-0.028137,1.1475,7.9768,0.84731,0.45794,6.8199,13.95,-1.9874,0.024591,-3.0496,0.029529,12.811,6.1314,8.4084,0.062027,-2.5575,19.158,6.9953,0.41954,0.87857,0.12635,-0.013553
-0.030127,1.1145,7.8944,0.78497,0.50321,7.4857,14.906,-2.0862,0.015533,-3.1024,0.061141,13.029,6.0947,8.9637,0.038415,-2.5872,19.954,6.4023,0.41706,0.80613,0.10412,0.0084239
-0.034763,1.0762,7.7425,0.75038,0.54976,8.25,15.562,-2.1308,-0.0054845,-3.1858,0.14647,13.356,6.0748,9.214,0.012193,-2.6078,20.905,5.9716,0.39652,0.75085,0.2255,0.032351
-0.041112,1.0387,7.7125,0.76028,0.58675,8.9992,15.916,-2.1104,-0.032533,-3.0683,0.27826,13.857,6.1014,9.0372,-0.0012698,-2.6685,21.965,5.599,0.36259,0.80825,0.2366,0.053763
-0.047793,0.98681,7.8645,0.81722,0.61081,9.6479,16.025,-2.0715,-0.057937,-3.1026,0.42556,14.573,6.1213,9.5717,0.015279,-2.6534,22.98,5.2046,0.32179,0.85514,0.22737,0.06918
-0.052891,0.93851,8.0855,0.91132,0.62286,10.137,15.979,-2.0401,-0.073701,-3.2153,0.5519,15.722,6.0585,9.8598,0.037346,-2.6041,23.739,5.2744,0.2824,0.85871,0.18587,0.076793
-0.054993,0.88442,8.3357,1.0248,0.62644,10.41,16.016,-2.1243,-0.073088,-3.2586,0.63378,17.234,5.8782,9.6892,0.054155,-2.6664,24.043,5.4304,0.2525,0.84992,0.14738,0.076747
-0.05467,0.82614,8.5837,1.1353,0.62487,10.497,16.079,-2.2427,-0.051822,-3.0682,0.66449,18.783,5.6325,9.8417,0.068619,-2.6545,23.777,5.9232,0.25565,0.81511,0.11118,0.070897
-0.054109,0.77243,8.857,1.2199,0.62151,10.477,16.142,-2.2126,-0.0084756,-2.7508,0.64842,20.203,5.4304,10.887,0.082884,-2.5624,22.966,6.3953,0.27438,0.79268,0.094399,0.062258
-0.055196,0.73493,9.0229,1.2591,0.61794,10.414,16.303,-2.0966,0.054872,-2.5538,0.59632,21.608,5.3144,12.406,0.099539,-2.4846,21.798,6.5124,0.28953,0.81766,0.092679,0.054312
-0.058011,0.6969,9.1203,1.2402,0.62672,10.376,16.6,-2.0354,0.13138,-2.4164,0.52609,22.933,5.2313,13.805,0.11608,-2.4129,20.552,6.5481,0.3035,0.824,0.10069,0.050218
-0.061027,0.69897,9.008,1.1619,0.63834,10.51,17.008,-2.078,0.21015,-2.122,0.46235,23.993,5.1065,15.001,0.12966,-2.4802,19.455,6.9118,0.31654,0.76675,0.10616,0.0516
-0.062672,0.69215,8.6515,1.0378,0.64395,10.84,17.527,-2.1653,0.27912,-1.8855,0.4253,24.622,4.9197,17.116,0.1368,-2.4246,18.644,7.0019,0.33159,0.79569,0.10465,0.057425
-0.061861,0.65544,8.6936,0.89551,0.65082,11.162,18.125,-2.0532,0.32763,-1.9138,0.42122,24.728,4.772,18.967,0.13653,-2.3062,18.189,6.6266,0.3479,0.88155,0.09708,0.064527
-0.058882,0.60074,8.8331,0.77298,0.66724,11.533,18.741,-1.9662,0.34803,-1.8926,0.44682,24.922,4.7352,19.96,0.12913,-2.1959,18.044,6.0701,0.36244,0.89246,0.0875,0.06948
-0.056118,0.54127,8.7106,0.70832,0.68974,11.797,19.16,-1.8692,0.33698,-2.0144,0.4931,25.518,4.7707,20.858,0.11544,-2.034,18.06,5.6376,0.37085,0.8678,0.080593,0.070025
-0.056196,0.4811,8.9144,0.72339,0.70709,11.968,19.451,-1.7638,0.29658,-2.0741,0.54905,26.486,4.807,21.816,0.090656,-2.0213,18.094,5.0389,0.37022,0.81048,0.080112,0.065594
-0.060522,0.41693,9.2435,0.81126,0.71486,12.101,19.859,-1.7001,0.23486,-1.8566,0.60511,27.689,4.6905,22.919,0.060032,-2.0219,18.065,4.3889,0.35944,0.78789,0.087964,0.057336
-0.0692,0.35245,9.3157,0.93705,0.70644,12.02,19.546,-1.625,0.16592,-1.7521,0.65239,29.04,4.4227,24.777,0.033454,-1.9393,17.965,3.9042,0.34062,0.74751,0.10346,0.04765
-0.08149,0.2872,9.1678,1.0495,0.67821,11.883,19.413,-1.529,0.10889,-1.5572,0.69522,30.316,4.1019,26.478,0.0087131,-1.8153,17.815,3.4297,0.31843,0.71646,0.12326,0.039231
-0.095255,0.2188,8.6193,1.097,0.63671,11.732,19.314,-1.3883,0.084025,-1.2997,0.75759,31.261,3.6152,28.077,-0.0037786,-1.5802,17.618,3.1983,0.29638,0.68879,0.14345,0.034034
-0.10975,0.15657,8.3789,1.0415,0.59645,11.561,19.118,-1.4813,0.10332,-0.91468,0.86947,31.867,3.0442,29.007,0.00018001,-1.3509,17.388,3.4901,0.27476,0.66915,0.1628,0.032434
-0.12189,0.10959,8.2019,0.86678,0.56898,11.381,18.95,-1.4742,0.16205,-0.71935,1.0334,32.182,2.8215,29.5,0.021151,-1.126,17.168,3.6742,0.25329,0.65669,0.18215,0.033044
-0.13322,0.082522,7.8728,0.57939,0.55991,11.322,18.847,-1.2584,0.24189,-0.43203,1.2182,32.182,2.7766,29.381,0.053277,-0.99791,16.958,3.7973,0.23242,0.64429,0.20146,0.033596
-0.12465,0.073653,7.5795,0.20562,0.57114,11.387,18.999,-0.99138,0.32007,-0.3003,1.3816,31.836,3.086,27.853,0.086682,-0.94134,16.747,3.9502,0.21389,0.63307,0.22032,0.032268
-0.12756,0.07025,7.2551,-0.21406,0.59884,11.466,19.44,-0.86933,0.37665,-0.23512,1.4836,31.27,3.6346,26.53,0.11251,-0.96973,16.524,4.0195,0.20031,0.61225,0.23793,0.028941
-0.11894,0.060186,6.7199,-0.63255,0.63334,11.607,20.025,-1.0164,0.39919,-0.20042,1.5053,30.669,4.0456,26.023,0.12416,-0.99299,16.242,4.0103,0.19337,0.57273,0.25147,0.025934
-0.10001,0.032984,6.5207,-1.002,0.66271,11.949,20.493,-1.1392,0.38466,-0.32472,1.461,30.092,4.1979,25.679,0.11814,-0.84613,15.874,3.9864,0.19148,0.52179,0.25404,0.026815
-0.08696,-0.011875,6.7915,-1.2748,0.67698,12.308,20.659,-0.76673,0.33788,-0.71119,1.3916,29.517,4.1273,25.086,0.096293,-0.73722,15.498,3.7652,0.19155,0.47526,0.23987,0.033654
-0.07332,-0.068638,6.7974,-1.4074,0.67331,12.513,20.576,-0.18098,0.26826,-0.88244,1.3334,28.958,3.8326,25.808,0.066475,-0.72979,15.26,3.485,0.19105,0.44569,0.20642,0.045193
-0.062809,-0.12048,6.6047,-1.3732,0.6481,12.445,20.144,0.19402,0.18822,-0.92314,1.2936,28.445,3.2317,26.379,0.03874,-0.70405,15.185,3.0906,0.19306,0.43315,0.15981,0.057282
-0.053485,-0.15446,6.0925,-1.1847,0.61141,12.125,19.648,0.39157,0.11314,-0.94186,1.2582,27.872,2.4186,26.309,0.020714,-0.60538,15.136,2.7979,0.19955,0.43462,0.10979,0.064985
-0.047121,-0.16724,5.7353,-0.90741,0.55515,11.567,18.941,0.8829,0.059043,-1.1565,1.2125,27.148,1.6126,26.652,0.016151,-0.31699,14.963,2.5952,0.21009,0.45158,0.10405,0.064837
-0.040869,-0.1479,5.2054,-0.64877,0.52733,10.942,18.123,0.87454,0.038915,-1.5151,1.1472,26.358,0.90957,26.217,0.027333,-0.018127,14.615,2.3461,0.21619,0.48233,0.18877,0.05621
-0.038377,-0.11532,4.4709,-0.51976,0.49932,10.378,17.504,1.5302,0.057525,-1.1936,1.0975,25.536,0.66514,25.55,0.055025,0.30274,14.229,2.2744,0.21699,0.5188,0.29822,0.041247
-0.042495,-0.08691,4.0183,-0.59231,0.46479,9.8671,17.343,2.2532,0.1038,-0.94985,1.1049,24.727,1.0022,25.437,0.090591,0.64182,13.701,2.0556,0.2367,0.54997,0.3882,0.023756
-0.051563,-0.068411,3.9414,-0.87341,0.40722,9.6399,17.523,3.0718,0.15892,-0.48273,1.1387,23.933,1.1896,25.524,0.12278,1.1165,12.808,1.9481,0.23641,0.56828,0.43404,0.0080807
-0.063461,-0.06394,3.6724,-1.3058,0.40543,9.5565,17.873,3.8004,0.21011,0.14511,1.1962,23.303,1.2121,25.522,0.14628,1.6312,11.552,2.3262,0.20022,0.56446,0.43342,-0.0020074
-0.075949,-0.053931,3.6081,-1.7888,0.41294,9.6116,18.002,3.8962,0.25189,0.37004,1.2828,22.816,1.0639,25.607,0.16034,2.0739,9.9897,2.3895,0.18745,0.53128,0.36483,-0.0042288
-0.086869,-0.065125,3.5216,-2.2128,0.44058,9.7996,17.973,4.9232,0.28181,0.4385,1.3804,21.919,0.81227,25.016,0.16989,2.3485,8.2294,2.4833,0.17161,0.4746,0.35016,0.0020126
-0.088043,-0.086351,3.191,-2.4975,0.52135,9.9564,17.822,5.8708,0.29631,0.54522,1.462,20.79,0.52251,24.089,0.18292,2.5274,6.5021,2.4357,0.15553,0.4037,0.28452,0.015862
-0.073879,-0.097914,3.036,-2.6187,0.5369,9.9234,17.378,6.3527,0.28984,0.062702,1.5039,18.928,0.32735,23.368,0.19731,2.8646,5.1486,2.5006,0.16174,0.32772,0.29489,0.035638
-0.048716,-0.12023,2.6375,-2.6099,0.53401,9.7506,16.789,6.3679,0.25673,-0.50934,1.4952,17.037,0.28556,22.113,0.20815,2.9737,4.3901,2.8717,0.1755,0.25809,0.3082,0.056973
-0.025535,-0.14563,2.3071,-2.5397,0.54396,9.5058,15.749,6.3564,0.19551,-1.1603,1.4386,15.601,0.50727,20.637,0.21575,2.9796,4.3007,3.0037,0.18876,0.20589,0.28882,0.076639
-0.013347,-0.17508,2.2532,-2.4795,0.5793,9.41,14.298,6.628,0.11397,-1.8906,1.3427,13.959,0.73327,19.284,0.22342,3.0418,4.7599,2.9856,0.18512,0.17567,0.17702,0.087723
-0.020421,-0.19728,2.0462,-2.4767,0.65996,9.4067,13.138,6.5499,0.031204,-2.5375,1.2201,12.369,1.0088,17.911,0.23252,3.1834,5.4181,2.785,0.17018,0.16743,0.075602,0.091417
-0.046002,-0.21561,1.793,-2.5453,0.71946,9.4057,12.454,6.3436,-0.028591,-2.7299,1.1023,11.668,1.3619,16.926,0.23795,3.3095,5.9406,2.59,0.16471,0.17098,0.28128,0.079381
-0.10266,-0.22019,1.6127,-2.6757,0.71951,9.3978,12.065,6.4855,-0.050002,-2.7464,1.0314,11.587,1.6177,15.824,0.23214,3.428,6.1442,2.3761,0.20015,0.17043,0.28279,0.062576
-0.14924,-0.2451,1.401,-2.8519,0.74107,9.279,12.078,7.0015,-0.035889,-2.7667,1.0041,10.847,1.578,15.199,0.21148,3.3393,5.9928,2.2347,0.22648,0.15935,0.18975,0.017593
-0.16899,-0.22073,1.3602,-3.0643,0.89016,8.9773,11.945,7.5367,-0.0021897,-2.8062,0.98928,9.6993,1.3691,14.465,0.18113,3.1065,5.5871,2.1552,0.31825,0.13833,0.17265,0.015295
-0.13847,-0.19099,1.3487,-3.3085,0.93573,8.3586,11.891,7.8216,0.034464,-2.8477,0.97087,8.4687,0.8385,13.713,0.15068,2.7822,5.1044,1.9367,0.46627,0.10591,0.48345,0.039552
-0.11647,-0.18826,1.428,-3.5736,1.0269,7.5348,11.921,8.0479,0.064359,-2.7647,0.94746,7.5969,0.069413,12.722,0.12484,2.6387,4.7034,2.1252,0.60644,0.060416,0.77314,0.046502
-0.061214,-0.22582,1.3157,-3.835,1.0647,7.0516,11.767,8.1841,0.084765,-2.7777,0.92312,6.4572,-0.52668,11.91,0.10554,2.4693,4.4779,2.3427,0.68728,0.015801,0.97949,0.016971
-0.0018851,-0.22377,1.106,-4.0593,1.1483,6.4739,11.624,7.592,0.095787,-2.8524,0.89139,5.4805,-0.65105,11.303,0.10238,2.3913,4.3993,2.515,0.79625,-0.0006281,1.2273,0.024759
0.044113,-0.1498,1.1146,-4.2165,1.2206,5.9898,11.267,7.1383,0.09682,-2.9662,0.83927,4.8002,-0.38415,11.214,0.12158,2.3737,4.3807,2.5977,0.98897,-0.029674,1.4016,0.10903
0.12731,-0.083898,1.1574,-4.2888,1.1102,6.0615,10.375,7.0126,0.086127,-3.1128,0.75901,4.1471,-0.23526,10.832,0.15203,2.3005,4.3292,2.4814,1.0866,-0.047816,1.5145,0.1675
0.16672,-0.021968,1.1037,-4.274,1.0583,6.1596,9.5915,6.0731,0.062234,-3.3148,0.64914,3.8959,0.021567,10.641,0.18038,2.3363,4.1312,2.3301,1.1331,-0.050961,1.5914,0.22613
0.17968,0.012516,1.0047,-4.1854,1.1026,6.3741,8.6242,5.9859,0.025043,-3.3836,0.51356,3.5448,0.20568,10.317,0.19664,2.3025,3.701,2.1122,1.2114,-0.051331,1.5252,0.26183
0.15798,0.025456,0.87832,-4.0477,1.0675,6.5192,7.8704,6.6711,-0.023709,-3.3627,0.37989,3.3472,0.24671,9.8022,0.19325,2.2538,3.038,1.7523,1.2421,-0.035029,1.3496,0.28393
0.092665,0.0071338,0.7919,-3.891,1.079,6.3618,6.9863,7.0678,-0.080381,-3.3464,0.26806,3.2095,0.23795,8.9719,0.16859,2.0947,2.2465,1.4009,1.1396,-0.018367,1.0628,0.2758
0.090319,-0.028912,0.71724,-3.7471,1.1278,6.0832,6.1265,7.0055,-0.13876,-3.3839,0.17251,3.1379,0.047548,7.7622,0.12592,1.9831,1.5025,1.2401,0.95695,-0.014357,0.70765,0.25022
0.12941,-0.084658,0.71026,-3.6418,1.1897,5.7602,5.4422,7.4796,-0.18959,-3.4516,0.10442,2.8967,-0.16474,6.1196,0.076123,1.7212,1.0274,0.97346,0.87266,-0.025289,0.39406,0.1811
0.15075,-0.135,0.60141,-3.5906,1.3091,5.2859,5.2152,8.107,-0.22341,-3.5134,0.077761,2.627,-0.37509,5.3186,0.029986,1.5878,0.83808,0.85727,0.82548,-0.032294,0.28362,0.12773
0.13836,-0.20131,0.53419,-3.597,1.3713,4.9978,5.1748,8.3758,-0.23609,-3.649,0.090418,2.0755,-0.5651,4.6366,-0.0012405,1.8349,0.78895,0.94143,0.82832,-0.029777,0.33312,0.069279
0.076905,-0.17315,0.54183,-3.6556,1.3201,4.6971,4.9959,7.9684,-0.23165,-3.7043,0.1227,1.1815,-0.53358,3.5232,-0.025801,1.8448,1.0243,0.89322,0.78623,-0.0063827,0.4876,0.080009
0.17557,-0.14856,0.58613,-3.7555,1.154,4.4752,4.1903,7.1191,-0.21983,-3.757,0.14899,0.042964,-0.32426,2.3099,-0.0186,1.724,1.2893,0.87666,0.83739,0.022328,0.67537,0.078931
0.31353,-0.14292,0.58094,-3.8834,0.99512,4.3133,3.106,6.7339,-0.21065,-3.9038,0.14941,-1.2874,-0.11849,1.828,-0.0093965,1.4587,1.258,0.71583,0.83011,0.05675,0.81239,0.042635
0.3961,-0.0736,0.5758,-4.0273,0.96111,4.0877,2.8364,6.158,-0.21015,-4.0036,0.11423,-2.2322,-0.038534,1.089,-0.001841,1.2908,1.0136,0.52543,0.8674,0.09653,0.8661,0.065388
0.45075,-0.062433,0.48029,-4.1767,0.95549,3.7323,2.3002,5.7218,-0.21947,-4.0291,0.044722,-3.0192,-0.21887,0.48126,0.0089013,1.3697,0.66727,0.52891,1.0105,0.11383,0.76178,0.11504
0.44968,-0.070774,0.46467,-4.3223,0.83745,3.3345,1.8213,5.1867,-0.23638,-4.1286,-0.046703,-3.5183,-0.4403,0.15473,-0.0036824,1.3246,0.40294,0.49238,1.0543,0.10656,0.69445,0.1892
0.42547,-0.086395,0.49849,-4.456,0.82154,3.012,1.4353,4.8294,-0.257,-4.1705,-0.13932,-3.6115,-0.61133,-0.40819,-0.028568,1.3173,0.29368,0.43327,1.0896,0.082798,0.51678,0.22319
0.3693,-0.1283,0.5702,-4.5697,0.95818,2.6965,1.0988,5.2858,-0.2771,-4.2442,-0.21067,-3.9817,-0.64145,-0.77785,-0.059666,1.1604,0.33949,0.41085,1.0764,0.06105,0.4345,0.23965
0.26926,-0.20608,0.55423,-4.6515,1.0897,2.3713,0.67144,6.12,-0.29288,-4.2868,-0.24429,-3.9183,-0.42098,-0.75897,-0.085243,0.90707,0.48155,0.47539,1.2112,0.045585,0.46269,0.22577
0.16252,-0.27447,0.48269,-4.6826,1.294,1.9662,0.59237,6.4293,-0.30183,-4.3074,-0.23584,-3.5799,-0.32594,-0.32912,-0.1041,0.73397,0.60858,0.5321,1.3762,0.036242,0.60784,0.19474
0.032945,-0.28236,0.51634,-4.642,1.472,1.655,0.40433,6.5461,-0.30401,-4.3152,-0.19523,-3.6965,-0.22716,-0.23651,-0.12079,0.52453,0.63887,0.54993,1.4797,0.025479,1.0422,0.14496
0.12817,-0.27099,0.67941,-4.5211,1.5464,1.7377,0.090675,6.8702,-0.30271,-4.3498,-0.14277,-3.6375,-0.090482,-0.8944,-0.13329,0.22602,0.57859,0.49856,1.5222,0.016877,1.3836,0.090966
0.22211,-0.21647,0.76203,-4.3393,1.4767,1.8315,-0.091741,7.0601,-0.30316,-4.4867,-0.10014,-3.5267,-0.19747,-1.4906,-0.14752,-0.1866,0.45268,0.41518,1.5152,0.010577,1.5882,0.023348
0.28765,-0.17212,0.93383,-4.1477,1.3929,1.748,-0.47576,6.6582,-0.30977,-4.5006,-0.081818,-3.6055,-0.43606,-1.8867,-0.15689,-0.49522,0.20409,0.29047,1.5345,0.001301,2.0275,0.033967
0.24055,-0.10785,1.1494,-4.0137,1.4787,1.7359,-0.97155,6.0387,-0.32389,-4.5232,-0.091837,-3.8618,-0.74056,-2.7748,-0.14173,-0.47962,-0.17332,0.26847,1.5779,-0.0042041,2.5295,0.045632
0.30449,-0.053031,1.3979,-3.9959,1.4674,1.6611,-1.5096,5.4468,-0.34339,-4.6204,-0.12699,-4.2629,-1.094,-3.3062,-0.14359,-0.27054,-0.6036,0.23101,1.6454,0.011964,2.8064,0.034859
0.39329,-0.033465,1.6523,-4.1235,1.4434,1.538,-1.8088,5.2778,-0.36421,-4.6766,-0.18236,-4.7344,-1.3799,-3.7429,-0.15991,-0.25401,-0.98879,0.082958,1.5989,0.0038934,3.0574,0.0098488
0.52363,-0.0045442,1.6705,-4.387,1.5167,1.4754,-1.9465,4.6956,-0.3824,-4.6118,-0.2534,-5.1581,-1.5304,-3.7717,-0.16597,-0.21627,-1.2413,-0.035838,1.4673,-0.032526,3.7014,-0.0094725
0.6378,0.0021577,1.6639,-4.7442,1.5384,1.3889,-1.9054,4.0647,-0.3959,-4.582,-0.33352,-5.452,-1.585,-3.9178,-0.16929,-0.11672,-1.3787,0.025594,1.2119,-0.063408,4.0735,0.0070263
0.62806,-0.0086538,1.6405,-5.1366,1.5426,1.1951,-2.1024,4.4457,-0.40555,-4.6049,-0.41204,-5.7887,-1.5276,-3.845,-0.19116,-0.088289,-1.4798,0.047168,1.0365,-0.11352,4.0289,0.0035983
0.582,-0.025515,1.4752,-5.5068,1.6194,0.96118,-2.2724,4.7787,-0.41449,-4.6536,-0.47628,-5.8202,-1.4807,-3.8883,-0.20528,-0.13432,-1.5711,0.021043,1.0157,-0.1862,3.3895,-0.0032626
0.42694,-0.022242,1.2555,-5.8113,1.7071,0.74205,-2.6152,5.2708,-0.42623,-4.6942,-0.51789,-5.8386,-1.4471,-4.1182,-0.21309,-0.33391,-1.6393,-0.037188,0.93402,-0.20009,3.2784,-0.014684
0.54563,-0.0066635,1.1219,-6.0387,1.7136,0.53235,-2.6933,5.811,-0.44316,-4.7569,-0.53793,-5.8221,-1.3929,-4.5769,-0.19716,-0.54741,-1.6833,-0.10414,0.93879,-0.20482,3.9402,-0.023192
0.686,0.017096,1.1435,-6.2231,1.6037,0.31857,-2.5855,5.9609,-0.46643,-4.8082,-0.54375,-5.9358,-1.409,-4.5838,-0.17149,-0.70814,-1.7349,-0.099413,1.1483,-0.18849,3.9554,-0.028075
0.72971,0.056692,1.1686,-6.4288,1.7011,0.22977,-2.61,6.2826,-0.4956,-4.8387,-0.54222,-6.0935,-1.5228,-4.7098,-0.15793,-0.8299,-1.8181,-0.1073,1.3787,-0.20706,4.0929,-0.026378
0.88387,0.097929,1.243,-6.709,1.7941,0.18173,-2.6385,6.0917,-0.52818,-4.8809,-0.53734,-6.145,-1.6488,-5.0953,-0.15654,-0.90093,-1.9246,-0.11578,1.6466,-0.16305,4.626,-0.018587
1.0162,0.074987,1.3093,-7.0777,1.7634,0.15566,-2.6693,5.6709,-0.56054,-4.8858,-0.52978,-6.3278,-1.6903,-5.543,-0.16712,-0.94121,-2.0255,-0.11869,1.8028,0.048763,5.0666,-0.0062871
1.0279,0.073119,1.2006,-7.5046,1.8458,0.31938,-2.7612,5.5417,-0.58959,-4.8666,-0.5168,-6.5574,-1.624,-5.7981,-0.1794,-0.94018,-2.1079,-0.12319,1.8099,0.25762,5.4012,0.0067517
0.97532,0.1795,1.4527,-7.9268,1.884,0.38824,-2.805,5.7194,-0.61329,-4.8679,-0.49505,-6.8072,-1.5315,-6.0418,-0.19146,-1.2394,-2.181,-0.13563,1.7341,0.45688,5.6643,0.016925
0.85452,0.21779,1.623,-8.2712,1.8692,0.25056,-3.0079,5.8275,-0.63036,-4.9037,-0.46462,-7.0047,-1.4714,-5.9036,-0.20626,-1.3716,-2.248,-0.12727,1.6489,0.60122,5.6543,0.021793
0.78921,0.26989,1.7699,-8.478,1.9414,0.14844,-3.2622,5.7463,-0.63962,-4.9443,-0.4319,-7.0417,-1.4244,-6.0057,-0.22441,-1.2876,-2.2987,-0.12644,1.4524,0.69757,5.444,0.020721
0.6939,0.37233,1.9252,-8.5181,1.9744,0.050398,-3.551,5.8279,-0.6401,-4.9371,-0.40663,-6.8936,-1.409,-6.28,-0.2415,-1.3023,-2.323,-0.14988,1.2372,0.85137,5.1271,0.014784
0.57616,0.47686,2.0596,-8.4027,1.9684,-0.09671,-3.7385,5.7622,-0.63212,-4.9509,-0.39517,-6.6708,-1.4216,-6.2152,-0.25443,-1.2366,-2.3289,-0.16275,1.2036,1.1958,4.8716,0.0061902
0.46324,0.55301,2.0781,-8.1816,2.0739,-0.24927,-3.8924,5.4971,-0.61824,-4.9766,-0.39846,-6.4933,-1.4641,-6.2966,-0.26369,-1.1086,-2.35,-0.12239,1.171,1.4058,4.9391,-0.0025594
0.36584,0.62004,1.9753,-7.9235,2.1394,-0.37836,-4.2459,5.3579,-0.60281,-4.983,-0.41581,-6.387,-1.5337,-6.4072,-0.27083,-0.74575,-2.4331,-0.10072,1.2038,1.53,5.0659,-0.0093663
0.23011,0.65233,1.7234,-7.6949,2.1746,-0.46729,-4.2571,5.2099,-0.59055,-5.0013,-0.44839,-6.3557,-1.6228,-6.5868,-0.27731,-0.49697,-2.6123,-0.089183,1.2859,1.3731,5.12,-0.013302
0.17373,0.63238,1.4305,-7.5483,2.0781,-0.52651,-4.4128,5.2714,-0.58529,-5.0466,-0.49788,-6.387,-1.743,-6.8229,-0.28092,-0.46881,-2.8781,-0.11494,1.3874,1.4847,5.4441,-0.014233
0.24644,0.52895,1.0816,-7.5058,2.0929,-0.38568,-4.428,5.4615,-0.58857,-5.0593,-0.56308,-6.4949,-1.7196,-7.0356,-0.28514,-0.64906,-3.161,-0.10296,1.3818,1.7775,6.3252,-0.01424
0.25172,0.46525,0.77747,-7.5405,2.1583,-0.18466,-4.4843,5.6444,-0.59838,-5.0513,-0.63875,-6.6453,-1.694,-7.1016,-0.29868,-0.76953,-3.3441,-0.061399,1.3495,1.8065,6.8894,-0.014543
0.2009,0.40774,0.80759,-7.577,2.1232,-0.048413,-4.5916,6.1419,-0.60924,-5.0616,-0.71504,-6.8756,-1.7465,-7.0196,-0.29145,-0.97906,-3.3942,-0.067422,1.2157,1.7795,7.1439,-0.018846
0.21467,0.26166,0.82094,-7.538,1.9204,0.026944,-4.4681,6.6615,-0.61495,-5.0851,-0.77878,-7.0473,-1.7713,-6.9785,-0.28345,-1.1702,-3.3786,-0.037376,1.1151,1.4234,7.3356,-0.026156
0.25582,0.18348,0.94504,-7.3948,1.7306,0.020679,-4.421,7.0598,-0.61206,-5.0811,-0.81841,-7.0441,-1.7081,-6.9435,-0.28777,-0.97498,-3.3654,-0.037295,1.0436,1.2816,7.2592,-0.041278
0.23941,0.17566,1.2218,-7.1621,1.7742,0.00034355,-4.4746,7.2873,-0.60055,-5.0625,-0.82895,-7.0836,-1.6774,-6.9484,-0.26934,-1.0845,-3.4089,-0.093457,0.99214,1.2337,7.02,-0.054681
0.19288,0.2249,1.4921,-6.8709,1.985,-0.041019,-4.4897,7.417,-0.58274,-5.0593,-0.8128,-7.1556,-1.6585,-6.9217,-0.24317,-1.0914,-3.5258,-0.038185,0.94949,1.3348,6.5607,-0.058248
0.13476,0.3158,1.6142,-6.5606,2.2012,-0.07951,-4.5666,7.2522,-0.5622,-5.0572,-0.77724,-7.1153,-1.653,-6.9591,-0.21662,-0.90951,-3.6926,0.02611,1.0857,1.4775,6.3624,-0.04927
0.083967,0.3912,1.7031,-6.2787,2.419,-0.14811,-4.6237,6.8141,-0.543,-5.0553,-0.73143,-6.9562,-1.6542,-7.0445,-0.18932,-0.80381,-3.8636,0.12841,1.2343,1.2821,6.5968,-0.025421
0.005889,0.45027,1.6859,-6.0728,2.489,-0.13709,-4.6259,6.3806,-0.52888,-5.0472,-0.68427,-6.8852,-1.6616,-7.1412,-0.16721,-0.77495,-3.9903,0.14883,1.3066,0.91489,6.7556,-0.0040092
-0.041915,0.48805,1.5838,-5.9721,2.5862,-0.059513,-4.6519,6.1365,-0.52197,-5.0413,-0.64227,-6.8481,-1.6693,-7.2664,-0.15247,-0.7699,-4.0011,0.16017,1.333,0.95933,7.0176,0.017218
-0.023825,0.49523,1.4411,-5.9634,2.6364,0.081073,-4.5992,5.6286,-0.52176,-5.0394,-0.60847,-6.8634,-1.6744,-7.2642,-0.1453,-0.53742,-3.8004,0.42511,1.2878,1.1281,7.2939,0.032548
-0.010835,0.46777,1.376,-5.9796,2.6134,0.20303,-4.5876,5.4441,-0.52488,-5.0432,-0.58306,-6.9037,-1.6733,-7.2553,-0.14398,-0.41679,-3.4312,0.61898,1.2482,1.0799,7.34,0.042664
0.016222,0.4201,1.2861,-5.9179,2.4883,0.20608,-4.6045,5.5002,-0.52639,-5.0522,-0.56509,-6.9657,-1.6655,-7.2508,-0.14556,-0.58456,-3.0096,0.77911,1.1432,0.86595,7.5293,0.047005
0.085298,0.38,1.345,-5.69,2.2503,0.14779,-4.613,5.7271,-0.52208,-5.0561,-0.55398,-7.0293,-1.6517,-7.2616,-0.14636,-0.79757,-2.6216,0.87511,1.056,0.86722,7.8608,0.048403
0.095165,0.35912,1.5543,-5.2743,1.9482,-0.018379,-4.6662,6.0647,-0.51039,-5.046,-0.5498,-7.0879,-1.6339,-7.3117,-0.14639,-0.76255,-2.3454,1.0507,0.92546,0.8196,8.0802,0.048839
0.1344,0.37341,1.5652,-4.7256,1.7883,-0.083076,-4.6865,6.2799,-0.49243,-5.0361,-0.55107,-7.1335,-1.6146,-7.342,-0.1479,-0.69714,-2.2322,1.2105,0.86873,0.66147,7.896,0.05004
0.17831,0.37649,1.5416,-4.1374,1.7938,-0.16037,-4.6839,6.4461,-0.47037,-5.0343,-0.55176,-7.1624,-1.5965,-7.3667,-0.15207,-0.67003,-2.2904,1.337,0.81569,0.78039,7.6525,0.052585
0.23766,0.36518,1.6992,-3.5975,1.9797,-0.19568,-4.685,6.692,-0.44608,-5.04,-0.54083,-7.1666,-1.5814,-7.3973,-0.15813,-0.53089,-2.4739,1.3743,0.70667,0.8001,7.2139,0.058771
0.29523,0.36534,1.6802,-3.161,2.3319,-0.12487,-4.6841,6.8596,-0.42106,-5.0404,-0.50663,-7.1469,-1.5701,-7.4563,-0.16423,-0.19235,-2.6987,1.3969,0.65281,0.71417,7.0963,0.069611
0.34486,0.34749,1.5369,-2.8441,2.5501,-0.068056,-4.6593,6.9047,-0.39675,-5.0342,-0.44354,-7.1233,-1.5623,-7.5066,-0.16856,0.059612,-2.8792,1.5392,0.64911,0.56513,7.0483,0.083299
0.35545,0.337,1.3569,-2.6314,2.7352,0.0052148,-4.6605,7.0444,-0.37467,-5.0107,-0.35618,-7.1084,-1.5569,-7.4698,-0.16796,0.047792,-2.9934,1.592,0.67981,0.6345,7.1814,0.091483
0.30155,0.3629,1.1214,-2.4895,2.9916,0.10534,-4.6532,7.033,-0.3563,-4.9823,-0.25896,-7.1011,-1.5524,-7.4382,-0.15963,-0.015816,-3.0726,1.6346,0.69274,0.58587,7.5656,0.09324
0.24109,0.40366,0.9936,-2.3822,3.1156,0.17349,-4.6851,7.01,-0.34261,-4.9537,-0.17167,-7.0924,-1.5475,-7.4072,-0.14372,-0.14527,-3.1159,1.6238,0.70603,0.60063,8.0485,0.082146
0.1798,0.43899,0.98397,-2.2799,3.1531,0.2053,-4.7165,6.8537,-0.33359,-4.9316,-0.11341,-7.0716,-1.5417,-7.4125,-0.12491,-0.030972,-3.0927,1.5547,0.72349,0.55898,8.467,0.064234
0.10389,0.47067,1.002,-2.1688,3.0482,0.16469,-4.7056,6.7765,-0.32826,-4.9072,-0.097912,-7.0377,-1.5349,-7.3945,-0.10979,-0.019802,-3.0256,1.3008,0.73425,0.4278,8.8107,0.02243
0.055386,0.51084,1.2073,-2.0552,2.9358,0.035115,-4.7396,6.6832,-0.3251,-4.8979,-0.12978,-7.0004,-1.5274,-7.3402,-0.10561,-0.067333,-2.9697,1.2516,0.73889,0.25089,8.7289,0.0052597
0.019483,0.528,1.2431,-1.9673,2.8544,-0.027028,-4.7335,6.8056,-0.32318,-4.8978,-0.20131,-6.9699,-1.5204,-7.3165,-0.11804,-0.2024,-2.9606,1.3163,0.74528,0.29204,8.7237,0.051274
0.0051298,0.50407,1.3706,-1.9491,2.657,0.089285,-4.6221,7.1109,-0.32319,-4.8962,-0.29238,-6.9531,-1.516,-7.2701,-0.14854,-0.52521,-3.0096,1.2332,0.77091,0.29791,8.8548,0.034675
-0.013879,0.44547,1.4488,-2.0467,2.4319,0.14281,-4.5076,7.3606,-0.32776,-4.9114,-0.37618,-6.9548,-1.5166,-7.2667,-0.15728,-0.58351,-3.1068,1.1662,0.81983,0.17543,8.4949,0.044902
0.033317,0.39089,1.4595,-2.2871,2.2081,0.21071,-4.4055,7.6099,-0.34003,-4.9321,-0.42997,-6.9765,-1.5236,-7.2914,-0.16464,-0.61787,-3.2334,1.1308,0.82666,0.11411,8.1737,0.13621
0.043655,0.37903,1.4339,-2.666,1.979,0.33773,-4.3267,7.6775,-0.36171,-4.9731,-0.44434,-7.0145,-1.5376,-7.3655,-0.18974,-0.58527,-3.3657,1.3104,0.8009,-0.0025613,7.9833,0.20166
0.053936,0.36111,1.3937,-3.1531,1.8426,0.41424,-4.2757,7.5328,-0.39188,-4.9904,-0.42584,-7.06,-1.5573,-7.3839,-0.19701,-0.51683,-3.4804,1.5691,0.75729,-0.048466,7.3925,0.26072
0.081301,0.35089,1.4394,-3.7007,1.7363,0.46824,-4.2737,7.1971,-0.42704,-5.0242,-0.39261,-7.1036,-1.5807,-7.3598,-0.15221,-0.36066,-3.5658,1.7098,0.69871,-0.1116,7.0931,0.29627
0.065921,0.3847,1.3731,-4.2397,1.6275,0.49385,-4.2991,7.0753,-0.46185,-5.0462,-0.36596,-7.1379,-1.605,-7.3558,-0.11227,-0.14366,-3.6332,1.9343,0.65734,-0.14928,7.1494,0.31317
0.038179,0.48016,1.2384,-4.6753,1.6347,0.48614,-4.3222,6.9735,-0.49002,-5.0558,-0.36105,-7.1554,-1.6259,-7.3407,-0.078173,0.038779,-3.7047,1.9176,0.60934,-0.19322,7.6235,0.29359
0.041077,0.51121,1.1973,-4.9155,1.6831,0.41606,-4.3779,6.9424,-0.50558,-5.0413,-0.38085,-7.1522,-1.6389,-7.3442,-0.058265,0.13541,-3.7917,1.8314,0.56681,-0.27405,8.0975,0.2804
0.049163,0.53335,0.99337,-4.9176,1.7813,0.31366,-4.4653,6.9155,-0.50523,-5.0384,-0.41683,-7.1317,-1.6409,-7.3087,-0.052384,0.27731,-3.8943,1.8976,0.54327,-0.28574,8.2366,0.24027
0.063518,0.54063,0.89058,-4.6967,1.8961,0.25726,-4.5002,6.9138,-0.49028,-5.0515,-0.45579,-7.1051,-1.6323,-7.2921,-0.054889,0.24764,-4.012,1.8464,0.50053,-0.23502,8.1474,0.16946
0.077526,0.52251,0.91156,-4.3025,2.0148,0.22745,-4.4604,7.0153,-0.4656,-4.9837,-0.4874,-7.0672,-1.616,-7.2688,-0.06255,0.19847,-4.1432,1.8518,0.50235,-0.2344,7.8211,0.10215
0.044715,0.47815,0.86748,-3.8009,1.9503,0.2153,-4.4484,7.0755,-0.43693,-4.9444,-0.50577,-7.0054,-1.5963,-7.2595,-0.073206,0.0696,-4.277,1.5988,0.53889,-0.26021,7.8815,0.065772
0.048035,0.40478,0.93859,-3.2554,1.8486,0.1743,-4.4523,7.0264,-0.40866,-4.9176,-0.50762,-6.94,-1.577,-7.2713,-0.10005,-0.064918,-4.3895,1.5265,0.48067,-0.31294,7.335,0.1348
0.068971,0.3229,0.97153,-2.7128,1.7103,0.17958,-4.4488,6.9434,-0.38287,-4.9228,-0.49247,-6.8799,-1.5604,-7.2951,-0.12306,-0.23534,-4.4532,1.5038,0.46846,-0.27268,6.6341,0.14588
0.13362,0.23589,0.92542,-2.2043,1.5291,0.30023,-4.3998,6.7729,-0.35984,-4.894,-0.46408,-6.8243,-1.5472,-7.3115,-0.094166,-0.20864,-4.4459,1.538,0.47249,-0.22007,6.6052,0.12926
0.21083,0.15679,0.93298,-1.7498,1.426,0.33743,-4.3484,6.5665,-0.33901,-4.873,-0.42941,-6.7721,-1.5368,-7.3329,-0.1176,-0.2129,-4.3532,2.022,0.43928,-0.18269,6.1815,0.077183
0.23615,0.14328,0.94613,-1.3561,1.3775,0.28719,-4.3346,6.8149,-0.31947,-4.887,-0.39502,-6.7286,-1.5279,-7.2988,-0.10913,-0.063881,-4.1697,2.3332,0.4254,-0.10301,5.6367,0.017112
0.2145,0.15168,0.92499,-1.0218,1.2875,0.20615,-4.3616,7.0211,-0.30044,-4.9502,-0.36365,-6.7003,-1.519,-7.3485,-0.060181,0.264,-3.9196,2.6436,0.42338,-0.067174,5.3353,0.046231
0.18217,0.19946,0.79401,-0.75099,1.2657,0.20888,-4.372,6.9472,-0.28221,-4.9803,-0.33331,-6.7011,-1.5096,-7.3316,-0.023872,0.59558,-3.6537,2.8291,0.38831,-0.055329,5.4869,0.068049
0.16928,0.26224,0.64712,-0.56527,1.3502,0.20927,-4.3619,6.7554,-0.26687,-4.9385,-0.29947,-6.7415,-1.5003,-7.2802,0.0075098,0.81394,-3.42,2.9707,0.41247,-0.079562,5.7971,0.059055
0.15322,0.29743,0.58801,-0.49906,1.4285,0.25091,-4.3385,6.8237,-0.2581,-4.8804,-0.26042,-6.8477,-1.4934,-7.2732,0.023618,0.99184,-3.2552,3.1073,0.47421,-0.10087,5.9745,0.12341
0.12772,0.31613,0.53701,-0.5786,1.4268,0.36151,-4.291,6.6255,-0.25952,-4.8416,-0.2219,-6.9449,-1.4915,-7.1499,0.028851,1.1094,-3.1854,3.0935,0.51805,-0.14572,5.8712,0.16341
0.12297,0.30053,0.53456,-0.79886,1.3653,0.50068,-4.2299,6.47,-0.27243,-4.8086,-0.19547,-6.9629,-1.4957,-7.0384,0.018353,1.0804,-3.2231,2.96,0.53123,-0.16706,5.367,0.19772
0.14301,0.26787,0.52014,-1.1126,1.3163,0.61982,-4.1616,6.4845,-0.29435,-4.8494,-0.19138,-6.9621,-1.5047,-7.0202,-0.0010022,0.99265,-3.3623,2.6443,0.51343,-0.1654,4.1915,0.2395
0.12879,0.19621,0.52013,-1.4377,1.3546,0.68012,-4.1045,6.4403,-0.31934,-4.774,-0.21094,-6.8251,-1.5148,-6.9924,-0.025556,0.92481,-3.5747,2.1782,0.48431,-0.17681,3.7329,0.24519
0.13204,0.11905,0.5467,-1.6863,1.4092,0.65667,-4.0811,6.4174,-0.34021,-4.6653,-0.24423,-6.6296,-1.5222,-7.0253,-0.051936,0.85442,-3.8145,1.8122,0.43803,-0.18773,3.7139,0.23011
0.12011,0.087987,0.49424,-1.807,1.4724,0.53723,-4.0732,6.5835,-0.35149,-4.6733,-0.27594,-6.4063,-1.5247,-6.8221,-0.07722,0.79605,-4.0318,1.6435,0.3735,-0.1892,3.1911,0.21736
0.092549,0.035601,0.40476,-1.8102,1.4809,0.34638,-4.0501,6.7644,-0.3515,-4.7034,-0.29387,-6.1082,-1.523,-6.5597,-0.094914,0.68313,-4.1897,1.6925,0.31248,-0.205,2.8116,0.17866
0.042314,0.050831,0.1836,-1.753,1.5458,0.13118,-4.0404,7.029,-0.34265,-4.6637,-0.29398,-5.9764,-1.5205,-6.3935,-0.1012,0.56033,-4.2734,1.8356,0.24688,-0.20061,2.9735,0.131
4.1249e-05,0.062189,0.19127,-1.7013,1.6069,0.015673,-4.029,7.2629,-0.33051,-4.4938,-0.28133,-5.8958,-1.5204,-6.2594,-0.10093,0.59762,-4.2915,2.0764,0.18246,-0.19905,3.111,0.06247
-0.026276,0.060417,0.20074,-1.6995,1.5392,-0.1334,-3.9933,7.4795,-0.3216,-4.4111,-0.26704,-5.8243,-1.5248,-6.2105,-0.097601,0.61064,-4.2734,2.352,0.22675,-0.21215,3.1471,0.0048989
-0.079977,0.054827,0.23587,-1.7582,1.5023,-0.25165,-3.9597,7.4726,-0.32066,-4.3017,-0.26291,-5.8782,-1.5333,-6.1421,-0.093106,0.48906,-4.2496,2.4867,0.26339,-0.24103,3.202,0.040688
-0.13471,0.047806,0.61996,-1.8563,1.4226,-0.28646,-3.9479,7.1411,-0.32856,-4.2076,-0.27594,-6.0015,-1.5438,-6.1286,-0.09213,0.48729,-4.2292,2.5571,0.2045,-0.28281,3.2406,0.043946
-0.095202,0.031928,0.89711,-1.9544,1.2906,-0.1943,-3.9309,7.0021,-0.3423,-4.1945,-0.30462,-6.1716,-1.5533,-6.1934,-0.098041,0.60923,-4.1996,2.564,0.23933,-0.32674,3.1189,0.022831
-0.044619,0.0092227,1.1615,-2.0112,1.1486,-0.014436,-3.842,6.8196,-0.35667,-4.1963,-0.33991,-6.3494,-1.5595,-6.3101,-0.1126,0.78559,-4.1424,2.4561,0.28569,-0.35947,2.8662,-0.011788
0.015903,-0.020805,1.3412,-2.0008,1.0682,0.14176,-3.7701,6.5848,-0.3668,-4.177,-0.37053,-6.5086,-1.5608,-6.3215,-0.1346,0.86024,-4.0508,2.2446,0.28069,-0.3844,2.5744,0.011367
0.045642,-0.054387,1.4556,-1.925,1.086,0.28585,-3.7499,6.4277,-0.37018,-4.2416,-0.38924,-6.5226,-1.5576,-6.2915,-0.1595,0.83756,-3.938,1.9858,0.25936,-0.39257,2.3317,0.023951
0.078598,-0.084943,1.4308,-1.8099,1.0382,0.35542,-3.648,6.2363,-0.367,-4.3486,-0.39576,-6.4618,-1.5511,-6.3175,-0.17927,0.65596,-3.833,1.7589,0.21629,-0.38817,2.2342,0.022271
0.11317,-0.099943,1.3148,-1.6908,0.89248,0.32932,-3.5852,6.1639,-0.35932,-4.4949,-0.39415,-6.3192,-1.5436,-6.2754,-0.18583,0.49839,-3.7668,1.6235,0.17431,-0.38383,2.2788,0.013326
0.10418,-0.097162,1.0299,-1.5972,0.69776,0.19415,-3.5447,6.1617,-0.35028,-4.6164,-0.3876,-6.2177,-1.5371,-6.2559,-0.18235,0.26691,-3.7584,1.6121,0.11826,-0.38755,2.3493,-0.00035387
0.074905,-0.091853,0.74057,-1.5457,0.73127,0.021715,-3.5651,6.0362,-0.34336,-4.6647,-0.37659,-6.0512,-1.5332,-6.2229,-0.17323,-0.06379,-3.8072,1.6365,0.080499,-0.37371,2.3744,-0.020106
0.035237,-0.099653,0.51155,-1.5388,0.76824,-0.14132,-3.6652,5.9925,-0.34119,-4.6263,-0.36175,-5.8723,-1.5325,-6.1357,-0.16497,-0.25496,-3.8923,1.7194,0.11697,-0.35377,2.3828,-0.034603
-0.0030961,-0.11181,0.36542,-1.5708,0.7359,-0.33442,-3.7616,5.8044,-0.34445,-4.5137,-0.3479,-5.831,-1.5346,-6.142,-0.16095,-0.33551,-3.9798,1.9185,0.10749,-0.35236,2.3502,-0.025516
-0.048788,-0.10719,0.43436,-1.6369,0.67969,-0.55488,-3.7828,5.5628,-0.3517,-4.4655,-0.34398,-5.8645,-1.5389,-6.0592,-0.15935,-0.27698,-4.0372,2.1206,0.10265,-0.34215,2.246,-0.031708
-0.076147,-0.095208,0.47909,-1.7378,0.5797,-0.56576,-3.8404,5.4465,-0.36005,-4.4579,-0.35749,-5.8916,-1.5448,-6.0296,-0.15961,-0.073734,-4.0449,2.2053,0.093947,-0.31321,2.02,-0.031325
