0,0,0,0,0,0,0,0,0,0,0,0,0,0,0,0,0,0,0,0,0,0
0.016657,0.13339,0.075922,-0.014129,-0.01684,-0.051323,0.20957,-0.056115,-0.010955,0.14566,-0.03298,0.3816,-0.10644,-0.083827,-0.011844,0.2124,-0.2577,0.02306,0.015793,0.010544,-0.034086,-0.00023842
0.0308,0.2623,0.37193,-0.010486,-0.029221,-0.13495,0.30243,0.15568,0.015273,0.46106,-0.062579,0.71796,-0.20495,0.55785,-0.011604,0.35197,-0.44185,0.060638,0.037102,0.063727,-0.074225,-0.00042012
-0.012242,0.38462,1.0014,0.015313,-0.034717,-0.18874,0.85418,0.25549,0.067615,0.91684,-0.082129,0.86833,-0.26089,1.4594,0.0044609,0.34653,-0.58699,0.10237,0.060112,0.065864,-0.1111,-0.0015729
-0.023308,0.48689,1.547,0.060376,-0.032192,-0.26125,1.1282,0.14012,0.13114,1.4407,-0.087863,0.83892,-0.38644,2.6676,0.028648,0.39426,-0.73385,0.14591,0.081551,0.058186,-0.13076,-0.0044086
0.10724,0.56224,2.0054,0.11849,-0.022192,-0.30164,1.395,0.066531,0.19566,1.9181,-0.077062,0.71832,-0.46107,3.5249,0.048886,0.54933,-0.90904,0.17494,0.09827,0.18342,-0.11847,-0.0087212
0.23406,0.64652,2.3544,0.18617,-0.0067713,-0.32303,1.6392,0.3348,0.25965,2.2813,-0.045908,0.67604,-0.34953,4.1174,0.064777,0.82546,-1.1132,0.18598,0.10727,0.1967,-0.065941,-0.01302
0.41094,0.73937,2.5608,0.26426,0.011274,-0.41285,2.1273,1.0071,0.32768,2.5605,0.0069348,0.80995,-0.27292,4.6904,0.081244,0.96628,-1.3148,0.1848,0.10788,0.15002,0.017661,-0.014792
0.58549,0.88207,2.8668,0.35512,0.028481,-0.35967,2.607,1.4073,0.40462,2.7987,0.074342,1.0635,-0.10488,4.806,0.10158,0.91516,-1.4575,0.17742,0.10248,-0.023429,0.11075,-0.011549
0.70884,1.0006,2.9672,0.45464,0.040745,-0.27766,2.6566,1.5724,0.49075,2.9456,0.13971,1.3535,0.011391,4.6656,0.12198,1.0092,-1.5016,0.17239,0.094784,-0.083924,0.1881,-0.0021182
0.84301,1.0818,2.7133,0.54478,0.044479,-0.19451,3.1137,1.8506,0.58095,2.9771,0.18341,1.6246,0.07664,4.2396,0.13835,1.1473,-1.4503,0.1761,0.087419,0.099224,0.24219,0.012512
0.9006,1.1165,2.4336,0.5982,0.038005,0.035868,3.7958,2.4986,0.66564,2.9472,0.19285,1.7346,0.10317,3.8882,0.15143,1.145,-1.3336,0.18951,0.080417,0.21237,0.27711,0.029256
0.85957,1.1095,2.5428,0.59442,0.023023,0.35627,4.6927,3.0865,0.73219,2.8649,0.16918,1.8867,0.071617,3.8988,0.16479,1.2229,-1.1982,0.21049,0.07225,0.35329,0.288,0.043913
0.77698,1.1009,2.5577,0.5334,0.0059418,0.66146,5.8843,3.5897,0.76814,2.7125,0.12899,2.039,-0.0042447,3.8448,0.18409,1.5369,-1.0957,0.23559,0.061368,0.43045,0.23539,0.052612
0.70464,1.1087,2.2294,0.43695,-0.0033083,0.96568,7.1067,3.8333,0.76735,2.551,0.098796,2.1937,-0.088463,4.2363,0.21352,1.7339,-1.053,0.275,0.046765,0.47233,0.1475,0.053227
0.66692,1.1174,2.1161,0.33955,0.0016862,1.2299,8.2297,3.9504,0.73543,2.4678,0.10273,2.3516,-0.21827,4.4166,0.25101,2.0121,-1.054,0.32371,0.028469,0.49419,0.19664,0.046183
0.65737,1.1686,2.107,0.27287,0.019226,1.4153,9.3261,4.153,0.69071,2.4983,0.15113,2.5465,-0.32004,4.6636,0.29144,2.2249,-1.0469,0.36282,0.008026,0.42545,0.19385,0.034215
0.59952,1.2011,2.0506,0.25007,0.043163,1.4776,10.035,4.3651,0.65954,2.6292,0.23893,2.5793,-0.45522,5.0476,0.32725,2.3515,-0.97126,0.38819,-0.011513,0.3086,0.34908,0.021201
0.48723,1.2941,2.1944,0.26097,0.06605,1.465,10.557,4.7028,0.66645,2.9188,0.35091,2.7306,-0.67572,5.0842,0.35256,2.446,-0.78511,0.39826,-0.025317,0.14719,0.5729,0.010811
0.56044,1.4239,2.4132,0.27985,0.08138,1.3381,11.099,5.3415,0.7207,3.2612,0.46711,2.8033,-0.8089,5.4428,0.3679,2.4914,-0.48673,0.39527,-0.027474,0.13764,0.74798,0.0054234
0.63694,1.5533,2.2821,0.27694,0.085827,1.2564,11.741,5.8476,0.81127,3.5509,0.56577,2.3535,-0.72074,5.6881,0.37468,2.3716,-0.063877,0.38088,-0.014219,0.3402,0.88701,0.0054017
0.74732,1.6509,2.3056,0.2297,0.080462,1.4222,12.387,6.3261,0.91607,3.6732,0.62489,2.3615,-0.39397,6.0095,0.37071,2.3109,0.39279,0.3597,0.013788,0.44185,0.95642,0.009111
0.85477,1.6985,2.7719,0.1323,0.072552,1.6916,13.39,6.598,1.0134,3.7049,0.63112,2.1703,0.062878,6.2086,0.35653,2.6198,0.72006,0.33616,0.051478,0.54175,0.9594,0.013687
0.88259,1.7005,2.891,-0.0029659,0.076634,2.2534,14.842,6.8014,1.0883,3.7146,0.59017,2.126,0.68915,6.5437,0.34124,2.6629,0.87896,0.31829,0.090879,0.54907,0.90004,0.016094
0.831,1.6746,2.7795,-0.15023,0.1096,2.9142,16.324,6.7882,1.1359,3.7954,0.52619,2.281,1.2533,6.5235,0.33254,2.7573,0.92992,0.30744,0.12362,0.54046,0.7964,0.014238
0.75951,1.6452,2.55,-0.27809,0.17209,3.7674,17.674,6.599,1.1631,4.0036,0.47082,2.4744,1.8284,6.9454,0.32999,2.8416,0.99777,0.3169,0.14326,0.60048,0.66404,0.0079033
0.64717,1.6264,2.2556,-0.36584,0.24775,4.66,18.846,6.1924,1.185,4.2524,0.4531,2.7081,2.1759,7.2457,0.33275,2.8932,1.2311,0.34008,0.14683,0.57958,0.43092,-0.00087936
0.49062,1.6262,2.2611,-0.41776,0.32281,5.5154,19.744,5.8988,1.2147,4.4647,0.48292,3.0114,2.5336,7.596,0.34551,2.8689,1.7622,0.41319,0.13522,0.53531,0.15069,-0.0085041
0.31641,1.6387,1.7875,-0.45806,0.39085,6.1228,20.367,5.7843,1.2569,4.6302,0.54487,3.2249,2.7142,7.9133,0.3575,3.0008,2.6112,0.484,0.11302,0.49312,-0.25833,-0.011268
0.2689,1.6446,1.4281,-0.51176,0.45016,6.6321,20.752,5.7792,1.3083,4.7664,0.61815,3.3951,2.9087,8.3047,0.36551,3.158,3.6042,0.5498,0.088011,0.47928,-0.55876,-0.0068754
0.32492,1.629,1.2745,-0.58888,0.50183,7.213,20.996,6.0478,1.3645,4.9033,0.69633,3.4752,3.1607,8.7781,0.37229,3.2207,4.4868,0.61351,0.068853,0.48164,-0.33038,0.0046876
0.31507,1.5966,1.511,-0.67562,0.54654,7.8592,21.278,6.0744,1.4239,5.0507,0.78548,3.4879,3.1563,9.0743,0.37944,3.3131,5.0394,0.6379,0.061122,0.50185,-0.020217,0.021264
0.26358,1.5697,1.9817,-0.7313,0.58449,8.4795,21.772,6.5409,1.4869,5.2058,0.88679,3.4941,3.5233,9.0003,0.38572,3.342,5.1287,0.63911,0.06509,0.56177,-0.05097,0.039303
0.20072,1.5689,1.8308,-0.70006,0.61167,9.083,22.552,7.1402,1.5531,5.3778,0.99225,3.6053,4.1525,8.5528,0.38273,3.4594,4.7451,0.61462,0.076905,0.62461,0.46959,0.054831
0.20481,1.5978,1.9953,-0.53839,0.62477,9.7406,23.558,7.6583,1.6176,5.5747,1.0866,3.8681,4.382,7.9112,0.36369,3.5428,4.0338,0.57766,0.092021,0.63662,1.4944,0.064788
0.23196,1.6494,2.8394,-0.24532,0.61908,10.457,24.65,8.1443,1.6685,5.7788,1.1517,4.1985,4.3623,7.1463,0.33768,3.6392,3.3102,0.5397,0.10803,0.60544,2.2266,0.068198
0.21467,1.7165,3.638,0.1206,0.61038,11.159,25.674,8.466,1.6924,5.976,1.1752,4.4142,4.5546,6.9029,0.31347,3.7139,2.9142,0.5195,0.12446,0.5554,2.8671,0.065979
0.19557,1.7869,4.0705,0.4526,0.65208,11.764,26.506,8.8542,1.6837,6.1467,1.158,4.4182,4.8397,7.0414,0.28896,3.7604,2.9838,0.5216,0.1414,0.50008,3.1645,0.059583
0.18592,1.8366,4.0537,0.63814,0.70173,12.216,27.08,9.0433,1.646,6.2452,1.1198,4.25,5.0552,6.9873,0.26542,3.6916,3.4447,0.55209,0.15956,0.48214,3.2345,0.050008
0.15015,1.8506,4.2348,0.61289,0.77231,12.523,27.433,9.1503,1.5911,6.2615,1.0986,4.0383,5.0603,7.1355,0.24647,3.5388,4.1129,0.6125,0.17857,0.47403,2.9619,0.037755
0.10947,1.8313,4.5252,0.39462,0.90444,12.756,27.699,9.0831,1.5397,6.2477,1.0907,4.0077,5.0091,7.6255,0.23814,3.4384,4.7804,0.67186,0.19566,0.50648,2.43,0.023193
0.10583,1.7899,4.3085,0.081043,1.0164,13.017,28.045,9.1463,1.5164,6.2731,1.0677,4.3336,4.8258,8.321,0.24792,3.3683,5.2014,0.71252,0.20762,0.54298,2.3578,0.0074504
0.1096,1.7491,3.9184,-0.1891,1.0973,13.369,28.557,9.2672,1.5392,6.3646,1.0457,4.99,4.6691,9.2066,0.27561,3.4475,5.2856,0.72756,0.21382,0.62624,2.2555,-0.0064413
0.11365,1.7391,3.7844,-0.30157,1.1624,13.834,29.233,9.3643,1.6096,6.5079,1.0628,5.8469,4.5303,10.025,0.3115,3.5464,4.996,0.72014,0.21682,0.70477,1.8068,-0.013709
0.11367,1.7806,3.5399,-0.22209,1.1895,14.418,30.027,9.5017,1.7107,6.6756,1.1402,6.7296,4.2995,10.52,0.34444,3.6912,4.5381,0.70215,0.21954,0.77489,1.8996,-0.010624
0.11548,1.8737,3.6479,-0.0046136,1.1972,15.09,30.873,9.6353,1.8141,6.8285,1.2637,7.4417,4.4762,10.503,0.36931,3.7707,3.9164,0.68176,0.22304,0.84715,2.4963,0.0026146
0.11517,1.9998,3.7665,0.24629,1.2052,15.787,31.715,9.8021,1.8944,6.9241,1.3972,7.7992,4.6285,9.9343,0.38715,3.8167,3.6968,0.65676,0.22769,0.93164,3.282,0.022403
0.12058,2.1285,4.3298,0.4293,1.2369,16.435,32.504,10.315,1.9411,6.9373,1.5027,7.7033,4.6052,8.9609,0.40229,3.8969,3.8546,0.63752,0.23495,1.0043,3.9708,0.044007
0.10509,2.2275,5.2419,0.49078,1.2986,16.97,33.202,10.543,1.9603,6.8757,1.5442,7.22,4.5662,7.9653,0.41789,4.0334,4.4592,0.64259,0.24586,1.05,4.9138,0.063014
0.13012,2.2726,5.9111,0.44649,1.3819,17.353,33.801,10.545,1.9718,6.8047,1.4965,6.6167,4.9404,7.5565,0.4331,4.2923,5.1833,0.66138,0.26052,1.0847,5.8434,0.07584
0.16218,2.2539,6.2485,0.3727,1.4694,17.575,34.32,10.317,1.9994,6.8392,1.3746,6.2271,5.5726,7.3786,0.44369,4.4988,5.5895,0.68517,0.27934,1.1137,6.14,0.080112
0.1771,2.177,6.1425,0.36871,1.5439,17.674,34.821,10.193,2.0592,7.0623,1.22,6.2617,6.3841,7.559,0.44634,4.6294,5.8632,0.71041,0.30093,1.1326,5.9144,0.07538
0.15409,2.0616,6.236,0.50168,1.5978,17.725,35.39,9.9677,2.1527,7.4778,1.0764,6.8212,6.7726,7.942,0.44248,4.6824,5.9497,0.74536,0.32071,1.1264,5.3777,0.063526
0.16543,1.9378,6.1747,0.75979,1.6332,17.799,36.129,10.115,2.2691,8.0283,1.0206,7.8524,7.2673,8.549,0.43899,4.5807,5.8537,0.78731,0.33278,1.0982,5.7471,0.048394
0.22479,1.8421,5.9944,1.0502,1.6582,17.955,37.122,10.159,2.3924,8.6027,1.1457,9.1607,7.4581,9.1763,0.43963,4.2888,5.5206,0.82338,0.33204,1.0307,6.1466,0.034903
0.25099,1.8372,6.188,1.2471,1.6833,18.247,38.296,10.743,2.5058,9.0921,1.4423,10.56,7.6022,9.471,0.44153,3.7482,4.971,0.84437,0.31605,0.93498,6.845,0.027485
0.27324,1.9082,6.3554,1.2549,1.7128,18.7,39.459,11.64,2.6004,9.4268,1.8108,11.841,7.7166,9.1339,0.44211,3.2697,4.1132,0.85493,0.28693,0.79869,7.8647,0.027489
0.28494,2.0301,6.5547,1.0505,1.7394,19.269,40.502,12.16,2.6808,9.5648,2.1535,12.832,7.9631,8.2083,0.44001,3.2125,3.2882,0.85721,0.25132,0.70779,8.857,0.032602
0.29239,2.1928,6.8775,0.68359,1.7522,19.84,41.398,12.668,2.7646,9.5001,2.3901,13.501,8.335,7.0222,0.43603,3.0692,2.545,0.84924,0.21838,0.6567,9.6162,0.039412
0.29181,2.376,7.2085,0.24337,1.7481,20.283,42.118,12.738,2.8708,9.2892,2.4927,13.829,8.7961,7.0798,0.43254,2.9636,2.2329,0.88435,0.19693,0.64512,10.032,0.045622
0.2931,2.5563,7.1632,-0.18127,1.7372,20.525,42.593,12.516,3.0069,9.0577,2.4878,13.866,9.1533,7.9755,0.43199,3.1252,2.4465,0.90367,0.19161,0.67372,10.303,0.050626
0.29458,2.705,7.013,-0.5254,1.7319,20.601,42.758,12.178,3.1659,8.9632,2.4099,13.845,9.3995,8.3293,0.43685,3.7852,2.9009,0.96773,0.19966,0.75743,9.9678,0.05474
0.31384,2.8074,6.7684,-0.7541,1.733,20.624,42.592,11.458,3.3322,9.1115,2.2624,13.976,9.34,8.6375,0.44876,4.6048,3.4457,1.048,0.21298,0.88255,9.1314,0.058078
0.37482,2.8633,6.8769,-0.85863,1.738,20.719,42.158,10.576,3.4965,9.4981,2.0314,14.123,9.0056,9.459,0.46572,5.418,3.9317,1.1023,0.22322,0.95612,7.9284,0.060262
0.44572,2.8828,7.0307,-0.84245,1.7493,20.96,41.676,10.025,3.6638,10.043,1.7283,14.194,8.9176,9.9145,0.48356,5.8497,4.1843,1.14,0.22549,0.98895,8.1294,0.060864
0.52382,2.8794,7.4633,-0.70312,1.7708,21.326,41.554,10.104,3.8488,10.645,1.4178,14.278,8.4764,10.219,0.49973,5.8551,4.0871,1.1548,0.21941,0.97505,8.4349,0.059597
0.56522,2.8685,7.8107,-0.42836,1.8108,21.704,42.049,10.236,4.0565,11.216,1.2541,14.473,8.0849,10.5,0.51378,5.5377,3.576,1.1548,0.20797,0.93199,8.4244,0.055974
0.56376,2.8664,8.1466,-0.016247,1.8719,21.978,42.987,10.821,4.2725,11.696,1.3376,14.85,8.4034,10.902,0.52476,5.0112,2.7043,1.1434,0.19531,0.86408,8.3513,0.049602
0.52521,2.8887,8.4875,0.49464,1.946,22.091,44.063,11.857,4.4723,12.054,1.5952,15.391,9.733,11.542,0.5311,4.438,1.6354,1.1296,0.18533,0.78239,8.6087,0.041924
0.46455,2.9444,8.6528,1.0105,2.016,22.056,45.05,12.913,4.6317,12.285,1.9057,15.912,11.343,12.382,0.53459,3.7261,0.65023,1.1204,0.18173,0.6997,8.7689,0.037321
0.39334,3.0337,8.7553,1.4011,2.0761,21.919,45.787,13.696,4.7336,12.418,2.1727,16.246,13.102,13.07,0.54243,3.2973,0.0075305,1.1233,0.18784,0.63656,8.4365,0.040671
0.3228,3.1496,8.55,1.5474,2.1237,21.732,46.185,13.955,4.7777,12.515,2.3536,16.416,14.7,13.321,0.56731,3.2071,0.041595,1.1469,0.20538,0.61548,8.5116,0.05304
0.29287,3.2736,8.0752,1.3866,2.1414,21.561,46.25,13.804,4.7842,12.649,2.4294,16.496,15.873,13.013,0.61732,3.5487,0.94759,1.1949,0.23282,0.62777,8.8311,0.070592
0.32061,3.3832,7.5775,0.93329,2.1242,21.485,46.075,13.835,4.7872,12.864,2.3975,16.405,16.575,12.177,0.68352,4.45,2.1542,1.2678,0.26447,0.65491,9.4107,0.087407
0.36437,3.4645,7.1447,0.27902,2.0722,21.556,45.785,13.188,4.8228,13.149,2.2711,16.014,16.204,10.939,0.74856,5.4608,3.2563,1.3477,0.29181,0.68001,10.222,0.098372
0.45105,3.5216,6.7191,-0.42274,1.9882,21.733,45.456,12.519,4.9138,13.465,2.0821,15.309,15.376,9.6849,0.79599,6.3016,3.9941,1.4132,0.30706,0.69402,11.545,0.10053
0.53495,3.5704,6.1712,-0.99348,1.8859,21.902,45.077,12.376,5.0634,13.755,1.8591,14.528,14.713,9.3158,0.81452,6.8102,4.2255,1.4292,0.30696,0.68613,12.749,0.093236
0.62874,3.6245,6.2193,-1.2864,1.7858,21.945,44.573,12.551,5.2587,13.989,1.6242,14.058,14.051,9.3196,0.80178,6.9863,3.9301,1.4517,0.29445,0.73837,13.531,0.077871
0.73584,3.6866,6.9014,-1.2268,1.7032,21.801,43.864,12.649,5.476,14.164,1.404,13.912,13.827,9.8411,0.76614,6.9195,3.1986,1.4681,0.27773,0.84604,13.654,0.057909
0.83928,3.7475,7.4821,-0.81193,1.6476,21.48,42.955,12.83,5.6866,14.271,1.2304,14.056,14.236,10.875,0.72365,6.5807,2.2373,1.3793,0.26625,0.93527,13.905,0.038925
0.91962,3.7948,7.9703,-0.1124,1.6329,21.083,41.94,13.229,5.8581,14.25,1.1385,14.49,15.289,11.587,0.69143,6.0197,1.2999,1.3504,0.26652,1.0055,13.883,0.027721
0.9773,3.8212,8.2615,0.68361,1.6849,20.737,40.994,13.336,5.9594,14.053,1.1776,15.251,16,12.28,0.68433,5.6671,0.5476,1.4975,0.28084,1.0568,13.6,0.029338
1.0136,3.8286,8.4109,1.3135,1.7728,20.474,40.366,13.35,5.9713,13.707,1.3798,16.165,16.318,12.583,0.70904,5.4202,0.086475,1.6044,0.30729,1.1207,13.149,0.044182
1.0283,3.8248,8.2622,1.5962,1.8431,20.277,40.22,13.36,5.9036,13.289,1.6906,16.658,16.248,12.118,0.76176,5.5911,0.020769,1.7011,0.34038,1.1623,13.062,0.068989
1.059,3.8145,8.0063,1.4987,1.8732,20.156,40.568,13.102,5.8068,12.909,2.0364,16.614,15.866,10.741,0.83161,6.1308,0.3425,1.6759,0.37138,1.1673,12.948,0.098114
0.97348,3.8072,7.2681,1.1001,1.8637,20.119,41.296,12.685,5.764,12.709,2.3533,16.118,15.241,9.1965,0.9026,6.8831,0.95148,1.6978,0.39048,1.137,12.469,0.12485
0.95828,3.8279,6.0408,0.54306,1.8325,20.115,42.184,12.615,5.8489,12.771,2.5789,15.04,14.346,8.0029,0.95934,7.5707,1.5185,1.819,0.39138,1.0752,12.027,0.14404
0.93821,3.8966,4.9706,-0.0060173,1.7954,20.22,43.058,12.464,6.0615,13.02,2.6678,13.591,13.458,7.201,0.99655,8.0175,1.7831,1.9017,0.37449,0.9845,12.459,0.15353
0.95673,4.0127,4.8974,-0.40284,1.7554,20.218,43.837,12.393,6.3196,13.304,2.6033,12.26,13.01,7.3663,1.0202,8.2241,1.7922,1.812,0.34729,0.86875,13.252,0.15423
1.0692,4.1563,4.9869,-0.57139,1.7123,20.033,44.503,12.466,6.5297,13.493,2.404,11.183,12.621,7.8555,1.0408,8.4566,1.7,1.9465,0.32127,0.73791,13.565,0.1491
1.0898,4.2954,4.7196,-0.51323,1.673,19.756,45.029,12.863,6.6429,13.541,2.1162,10.624,12.392,8.4197,1.0692,8.5618,1.6094,2.2412,0.30562,0.60289,13.848,0.14168
1.1973,4.3966,3.9487,-0.27594,1.645,19.434,45.362,13.234,6.6628,13.495,1.7947,10.245,11.756,8.7406,1.112,8.8465,1.5509,2.3838,0.30146,0.47966,14.372,0.1348
1.3761,4.4342,3.4504,0.080078,1.6337,19.086,45.424,13.628,6.6214,13.447,1.4872,9.8446,11.19,8.5905,1.1642,9.1142,1.5007,2.4013,0.30476,0.41358,15.005,0.12984
1.5021,4.401,3.6322,0.49021,1.6367,18.739,45.06,13.943,6.5523,13.469,1.2341,9.3682,10.891,8.032,1.2114,9.3645,1.3378,2.431,0.30987,0.4063,14.689,0.12664
1.5768,4.2994,3.8329,0.88094,1.6413,18.495,44.124,14.021,6.4787,13.558,1.074,8.6673,10.547,7.5073,1.2428,9.6279,0.97979,2.8142,0.30984,0.4394,13.922,0.12412
1.5501,4.1323,3.783,1.1791,1.6323,18.388,42.633,14.051,6.4087,13.648,1.025,7.7646,10.909,6.7237,1.2524,9.9459,0.41927,3.0278,0.29883,0.48746,14.392,0.12101
1.4974,3.9201,3.4515,1.3394,1.6034,18.408,40.802,13.889,6.3422,13.673,1.0689,6.7262,11.148,6.3521,1.2437,10.279,-0.012745,3.2631,0.27533,0.53666,14.473,0.11664
1.4406,3.6993,3.2377,1.3683,1.5583,18.515,38.972,13.718,6.2835,13.618,1.1736,5.4966,11.251,6.1435,1.2165,10.355,-0.7089,3.4554,0.24317,0.58639,14.707,0.11159
1.2878,3.551,2.9058,1.3222,1.5004,18.615,37.491,13.575,6.2419,13.505,1.3063,4.0837,11.511,6.389,1.182,10.428,-1.1699,3.59,0.20923,0.62395,14.997,0.10751
1.1307,3.549,2.6479,1.2816,1.439,18.636,36.565,13.403,6.2208,13.371,1.4393,3.5408,11.465,6.7048,1.1278,10.433,-1.4861,3.6772,0.17973,0.62794,15.467,0.10593
1.0217,3.6911,2.7416,1.311,1.3835,18.54,36.291,13.252,6.2178,13.262,1.5567,3.3162,11.018,6.6134,1.0827,10.309,-1.6163,3.6915,0.15822,0.60087,16.782,0.10697
0.95542,3.93,2.551,1.427,1.3369,18.312,36.587,13.242,6.2349,13.209,1.6468,3.3334,10.162,6.3401,1.0776,10.303,-1.4951,3.7818,0.14591,0.55455,17.76,0.1092
0.91753,4.2156,2.3939,1.5946,1.2998,17.963,37.037,13.001,6.2754,13.193,1.6905,3.443,8.9939,5.85,1.1066,10.293,-1.2142,3.8254,0.14234,0.51309,18.226,0.11067
0.9392,4.479,2.3065,1.7481,1.2691,17.535,37.293,12.808,6.3284,13.154,1.6685,3.849,7.9613,5.6068,1.1969,10.281,-0.79174,3.7773,0.14577,0.49595,18.208,0.11002
0.9963,4.6575,2.4192,1.8202,1.2434,17.106,37.397,12.527,6.365,13.021,1.5767,4.3263,6.6958,5.0317,1.2795,10.27,-0.28624,3.7502,0.15445,0.4912,17.782,0.10691
1.0651,4.7079,2.152,1.7687,1.2228,16.738,37.066,12.48,6.3512,12.747,1.4272,4.5346,5.8584,4.6805,1.3484,10.379,0.16084,3.6716,0.1669,0.50073,17.236,0.10196
1.1204,4.6217,1.9389,1.5862,1.1973,16.429,36.241,12.485,6.2619,12.386,1.2407,4.6765,5.3809,4.8495,1.3818,10.505,0.40226,3.4866,0.18048,0.50582,16.31,0.096546
1.1662,4.4275,1.8878,1.29,1.1667,16.185,35.226,12.659,6.0845,12.077,1.0383,4.7628,5.3032,5.1546,1.3817,10.57,0.38273,3.4403,0.19071,0.48874,15.383,0.09249
1.2109,4.1827,1.9418,0.90578,1.1423,16.057,34.221,12.969,5.8211,11.769,0.84292,4.3617,5.0207,5.6193,1.3473,10.652,0.089447,3.3345,0.19348,0.43794,14.766,0.09129
1.2291,3.9553,1.9666,0.45816,1.1387,16.062,33.314,13.099,5.4947,11.446,0.68454,3.7144,4.9885,6.3204,1.2866,10.75,-0.40815,3.3021,0.18743,0.36278,13.506,0.093445
1.2295,3.7994,1.9667,-0.029488,1.1474,16.154,32.531,13.089,5.1464,11.187,0.58741,2.8276,4.6737,7.2204,1.2121,10.881,-0.99082,3.2903,0.17391,0.26784,12.815,0.098037
1.2238,3.7281,1.9505,-0.52527,1.1438,16.231,31.928,12.887,4.8181,11.012,0.55934,1.6518,4.2567,7.1581,1.145,11.014,-1.3947,3.3363,0.15494,0.14774,12.991,0.10261
1.2135,3.7111,1.8452,-0.98598,1.1012,16.183,31.553,12.733,4.5316,10.869,0.58986,0.21208,3.2403,6.2389,1.1018,11.052,-1.5646,3.3745,0.13186,0.0029967,12.521,0.10429
1.2474,3.7008,1.6914,-1.3681,1.0247,15.948,31.322,12.568,4.2874,10.674,0.64825,-0.74155,2.1839,4.8765,1.0846,11.047,-1.7,3.4156,0.10575,-0.10932,11.685,0.10158
1.2227,3.6436,1.5642,-1.6389,0.92681,15.489,31.125,12.726,4.0844,10.349,0.7037,-1.2404,1.5024,2.8337,1.0842,11.005,-1.8061,3.441,0.078592,-0.22139,12.241,0.09516
1.1978,3.5106,1.2388,-1.7815,0.79749,14.817,30.938,12.571,3.9347,9.8802,0.74169,-1.7991,0.46033,0.66619,1.0889,10.863,-1.8749,3.3303,0.054041,-0.29194,13.005,0.087569
1.2366,3.3104,0.88568,-1.7984,0.67304,14.04,30.732,12.283,3.8575,9.3375,0.76051,-1.7846,0.0045859,-0.70731,1.089,10.609,-1.9203,3.1822,0.03545,-0.32685,13.109,0.08215
1.2967,3.0814,0.67583,-1.7125,0.58555,13.352,30.463,12.16,3.8553,8.8052,0.7648,-1.4573,0.19263,-1.5362,1.0767,10.325,-1.9873,3.1285,0.023326,-0.36175,12.444,0.081169
1.2806,2.8624,0.64016,-1.5606,0.50795,13.009,30.132,11.857,3.9004,8.2947,0.75313,-1.042,0.93915,-2.0375,1.0508,10.111,-2.0948,3.1432,0.015556,-0.34559,11.935,0.084093
1.276,2.6644,0.70379,-1.3839,0.4734,12.983,29.739,11.281,3.9515,7.8597,0.71494,-0.45983,1.933,-1.2148,1.0181,9.9808,-2.1969,3.1431,0.0093798,-0.32768,11.705,0.088295
1.1645,2.5056,0.78906,-1.2192,0.46529,13.012,29.219,11.049,3.9753,7.6322,0.64494,0.08517,2.6901,0.8837,0.98896,9.8832,-2.1916,3.1942,0.0037275,-0.27235,11.001,0.090968
1.1284,2.4592,0.85933,-1.091,0.45534,12.939,28.505,10.977,3.9553,7.4077,0.55105,0.34696,3.0122,2.0666,0.97968,9.8099,-2.0295,3.2611,-0.00093105,-0.21989,9.9783,0.090149
1.2089,2.5178,0.91585,-1.0086,0.44521,12.66,27.592,10.658,3.8863,7.1741,0.44857,0.14286,3.1939,2.2402,0.99567,9.7538,-1.7431,3.3238,-0.0050939,-0.20261,9.0593,0.085259
1.0991,2.598,0.94913,-0.97225,0.43243,12.176,26.561,10.242,3.7657,6.9388,0.34942,-0.48815,3.1036,1.5984,1.0233,9.6624,-1.3863,3.3392,-0.010238,-0.18536,8.0165,0.077289
0.94928,2.6716,0.90181,-0.98027,0.41863,11.468,25.537,9.7941,3.5918,6.6299,0.25688,-1.58,2.5923,0.68229,1.0404,9.4863,-1.0217,3.2677,-0.01688,-0.19287,7.5884,0.068306
0.6667,2.7014,0.77552,-1.0289,0.40247,10.707,24.768,9.2973,3.3648,6.3167,0.16914,-2.0761,1.8936,-0.33959,1.0373,9.2049,-0.70168,3.1477,-0.023733,-0.22768,7.447,0.060456
0.51652,2.6634,0.57054,-1.1102,0.38196,10.081,24.214,8.732,3.092,5.863,0.087125,-2.6518,1.1635,-1.766,1.01,8.8373,-0.45657,2.9023,-0.028043,-0.275,7.1664,0.055088
0.47524,2.5593,0.31274,-1.2159,0.35985,9.3569,23.755,8.1934,2.7994,5.3778,0.020148,-3.4504,0.15057,-3.0766,0.97114,8.4498,-0.30975,2.6388,-0.026764,-0.34195,7.0735,0.052413
0.36684,2.4036,-0.0078436,-1.3394,0.32798,8.9453,23.539,7.8079,2.5304,4.8747,-0.017705,-4.0735,-0.73219,-3.9584,0.91252,8.1093,-0.26947,2.2513,-0.017822,-0.39093,7.2341,0.051696
0.32421,2.2222,-0.24407,-1.4725,0.30466,9.2816,23.413,7.3827,2.3287,4.4024,-0.019033,-4.1938,-0.39979,-3.4625,0.89856,7.8886,-0.31688,2.1575,-0.0010128,-0.44868,6.8136,0.051633
0.24323,2.049,-0.27493,-1.6027,0.292,9.6178,23.289,7.1737,2.2235,4.1732,0.0097929,-3.6323,0.13317,-2.667,0.90979,7.8038,-0.41972,2.1413,0.02101,-0.49385,6.6769,0.050675
0.23876,1.9054,-0.21185,-1.7128,0.28121,10.052,23.295,7.3116,2.2254,4.2099,0.05505,-3.2213,0.41852,-2.3892,0.86015,7.78,-0.55348,2.0462,0.042508,-0.53879,6.1352,0.047216
0.22719,1.7883,-0.19844,-1.7826,0.26525,10.588,23.54,7.4933,2.3224,4.4655,0.10713,-2.7109,0.618,-2.3232,0.81676,7.7738,-0.70963,1.9302,0.057646,-0.51267,5.9867,0.040061
0.23989,1.6934,-0.19793,-1.797,0.22618,10.937,23.97,7.6992,2.4727,4.8748,0.16244,-2.3902,0.65133,-2.3746,0.82488,7.7592,-0.8864,1.9359,0.063273,-0.46728,5.769,0.02953
0.26295,1.6212,-0.14375,-1.756,0.1847,11.12,24.37,7.7714,2.6166,5.2312,0.21429,-2.0965,0.42897,-2.7433,0.7982,7.7426,-1.0803,2.1108,0.058862,-0.42195,5.6219,0.018185
0.28166,1.5677,-0.11987,-1.6774,0.15483,11.067,24.556,8.0878,2.7019,5.4788,0.25033,-1.9366,0.15175,-3.4337,0.7576,7.6626,-1.2832,2.2712,0.045686,-0.39275,5.5959,0.010105
0.30943,1.5297,-0.12637,-1.5921,0.14419,10.816,24.497,8.3744,2.7027,5.5845,0.26031,-1.8421,-0.38317,-4.2365,0.70403,7.518,-1.4763,2.3934,0.026486,-0.38326,5.4965,0.0089739
0.34222,1.507,-0.092773,-1.5359,0.14855,10.362,24.237,8.3551,2.6227,5.5454,0.24033,-1.9101,-0.70194,-4.7111,0.65031,7.2499,-1.6347,2.4121,0.0052477,-0.3756,5.3808,0.016097
0.36663,1.4568,-0.094992,-1.537,0.15912,9.8261,23.764,8.2398,2.484,5.3796,0.19385,-1.7836,-0.52127,-3.7753,0.60095,7.0914,-1.7455,2.3095,-0.013868,-0.34871,5.0744,0.029533
0.38046,1.3765,-0.1199,-1.6033,0.17405,9.2596,23.041,7.9703,2.3141,5.1246,0.13293,-1.9064,-0.57134,-2.7083,0.56453,7.1085,-1.8091,2.1782,-0.027906,-0.29289,4.6435,0.045019
0.3785,1.2862,-0.1866,-1.7203,0.18681,8.9224,22.163,7.7514,2.1391,4.8114,0.076103,-2.3656,-0.68821,-2.205,0.5525,7.017,-1.8301,2.0647,-0.035941,-0.23728,4.3119,0.057772
0.35608,1.2012,-0.19058,-1.8575,0.19505,8.9279,21.368,7.3487,1.9832,4.4618,0.040513,-3.0674,-1.0758,-1.256,0.55916,7.129,-1.8208,1.8675,-0.038856,-0.19189,3.8266,0.064092
0.31705,1.1409,-0.23171,-1.9779,0.1957,8.9086,20.996,6.8411,1.867,4.0725,0.033683,-3.6103,-1.3118,-0.6225,0.57596,7.3363,-1.8022,1.7474,-0.038271,-0.1622,3.644,0.062512
0.27335,1.1356,-0.25711,-2.0475,0.18959,8.833,21.115,6.4185,1.7994,3.6586,0.051175,-4,-0.95659,-0.80518,0.60089,7.4324,-1.7967,1.4547,-0.035376,-0.14984,3.9196,0.054126
0.23944,1.1848,-0.27203,-2.0435,0.17913,8.9134,21.426,6.0887,1.7709,3.2461,0.078824,-4.1449,-0.96525,-1.5695,0.62423,7.441,-1.8163,1.3744,-0.030618,-0.15873,3.9605,0.041866
0.22086,1.2537,-0.32621,-1.9585,0.16828,9.0052,21.762,6.021,1.7535,2.9664,0.094314,-3.9728,-0.93415,-2.5722,0.63402,7.3382,-1.8501,1.4642,-0.024418,-0.19354,3.7433,0.029368
0.20923,1.3273,-0.38316,-1.8043,0.1622,8.9121,21.977,5.897,1.7117,2.7988,0.074566,-3.9191,-0.60737,-3.659,0.62264,7.1181,-1.8659,1.5504,-0.017891,-0.25694,3.4369,0.019804
0.19441,1.385,-0.44039,-1.6135,0.16457,8.6876,22.032,5.7936,1.6224,2.6609,0.0098388,-4.153,-0.46381,-4.9236,0.59049,6.749,-1.8339,1.6431,-0.012606,-0.33742,3.5916,0.0145
0.17548,1.3992,-0.45802,-1.4304,0.17306,8.3449,21.949,5.9427,1.4901,2.6828,-0.091151,-4.2856,-0.22418,-4.1441,0.54343,6.2634,-1.7576,1.7026,-0.0095636,-0.41314,3.6862,0.012442
0.15858,1.3463,-0.45798,-1.2958,0.18321,7.953,21.661,5.8562,1.3489,2.8377,-0.20745,-4.4543,0.033841,-4.11,0.49229,5.8217,-1.6657,1.7902,-0.0084475,-0.49246,3.6943,0.011811
0.15144,1.2225,-0.46128,-1.2376,0.19166,7.5504,21.111,6.0214,1.2473,3.0667,-0.31444,-4.2708,0.12845,-4.1994,0.45065,5.6746,-1.5836,1.8428,-0.0078102,-0.54024,3.6298,0.011657
0.16024,1.05,-0.47747,-1.2659,0.1955,7.2208,20.379,6.2466,1.2194,3.3267,-0.3897,-4.0375,0.024834,-3.7223,0.42693,5.7573,-1.516,1.887,-0.0057117,-0.53676,3.5172,0.011953
0.18998,0.86514,-0.50311,-1.3696,0.19215,7.0457,19.656,6.359,1.2733,3.4762,-0.41589,-3.7358,-0.0625,-2.9857,0.42088,5.9722,-1.4461,1.8742,-0.00043859,-0.50065,3.3634,0.012933
0.23731,0.70647,-0.55162,-1.519,0.18156,7.0646,19.156,6.4952,1.3958,3.6187,-0.38592,-3.0428,-0.13683,-2.218,0.42733,6.2068,-1.3482,1.7875,0.008344,-0.45192,3.173,0.014902
0.28635,0.59804,-0.59251,-1.671,0.16737,7.2103,19.009,6.3143,1.5584,3.8724,-0.30889,-2.5176,-0.33823,-1.583,0.43773,6.3518,-1.2083,1.6694,0.018827,-0.40617,2.9566,0.018368
0.32054,0.55493,-0.54165,-1.7731,0.15507,7.3737,19.117,6.0504,1.7218,3.9872,-0.20702,-2.1837,-0.54136,-1.3666,0.44144,6.3998,-1.0404,1.6314,0.027878,-0.3311,2.6772,0.023731
0.33104,0.56942,-0.53726,-1.7735,0.15056,7.4916,19.326,5.9856,1.8465,4.0071,-0.10627,-2.223,-0.67086,-1.6154,0.42662,6.4107,-0.88583,1.5777,0.032625,-0.25961,2.297,0.030456
0.31384,0.62273,-0.53764,-1.6435,0.15931,7.5346,19.559,5.7782,1.9031,3.8939,-0.026814,-2.4986,-0.60192,-2.0787,0.38643,6.3291,-0.7948,1.6489,0.031535,-0.23197,1.802,0.036756
0.27435,0.67276,-0.42786,-1.3961,0.18073,7.5039,19.769,5.7022,1.8789,3.6029,0.022149,-2.9434,-0.4451,-2.5373,0.31887,6.1013,-0.8023,1.7635,0.024534,-0.23089,1.2906,0.040471
0.21505,0.69057,-0.33811,-1.0843,0.20669,7.3746,19.918,5.8961,1.7774,3.0627,0.042531,-3.5627,-0.30684,-3.6008,0.23328,5.7569,-0.90967,1.7888,0.012701,-0.23754,0.77503,0.040426
0.14775,0.67543,-0.26617,-0.78289,0.22749,7.1522,19.946,6.1641,1.6158,2.5593,0.044359,-4.1911,-0.23966,-3.8912,0.14149,5.3772,-1.0818,1.8018,-0.0016513,-0.24645,0.74097,0.037075
0.064798,0.62221,-0.21969,-0.56495,0.23657,6.7849,19.794,6.5334,1.4254,2.1022,0.041146,-4.4061,-0.23968,-4.0134,0.087364,5.0954,-1.2646,1.8005,-0.014857,-0.27078,0.9071,0.031791
0.074098,0.53496,-0.1992,-0.48145,0.23263,6.4299,19.462,6.9616,1.2472,1.665,0.044647,-4.4906,-0.33277,-4.6436,0.092155,4.9593,-1.4157,1.8375,-0.022902,-0.29881,1.0752,0.025541
0.088232,0.43424,-0.21495,-0.55041,0.21892,6.1061,19.025,7.16,1.1206,1.4796,0.060269,-4.4385,-0.37131,-4.846,0.12441,5.028,-1.5204,1.8681,-0.023462,-0.33719,1.0757,0.018512
0.077339,0.35736,-0.26018,-0.75412,0.20057,5.881,18.6,7.2409,1.0707,1.6642,0.086033,-4.0167,-0.49147,-4.191,0.17448,5.2506,-1.5876,1.9555,-0.017279,-0.32173,1.1993,0.011014
0.049563,0.32977,-0.34384,-1.0407,0.18135,5.824,18.271,7.2582,1.0993,2.183,0.11529,-3.4639,-0.62262,-3.8721,0.22925,5.5094,-1.6433,2.097,-0.0074536,-0.3559,1.4003,0.0042516
0.020861,0.32029,-0.44045,-1.3349,0.16259,5.9666,18.034,6.9785,1.1849,2.7329,0.14,-3.1281,-0.65931,-4.0661,0.27728,5.7181,-1.7157,2.1977,0.0023423,-0.37451,1.3618,0.00021701
0.038567,0.3007,-0.57785,-1.5622,0.14413,6.1105,17.835,6.5946,1.2915,3.0391,0.15275,-3.0786,-0.66788,-3.9244,0.30579,5.8371,-1.8074,2.2423,0.0089562,-0.36345,1.2624,0.00073279
0.040156,0.2704,-0.60979,-1.6776,0.12564,5.9974,17.763,6.3423,1.3803,3.1113,0.14719,-3.3213,-0.605,-3.4014,0.3078,5.8306,-1.874,2.3006,0.010258,-0.39154,1.0343,0.0062298
0.044695,0.24604,-0.59075,-1.6801,0.10622,5.9703,17.725,5.8764,1.4207,3.14,0.11783,-3.7116,-0.53048,-2.9579,0.28072,5.784,-1.8391,2.2369,0.0055098,-0.39926,0.78284,0.015456
0.051264,0.22793,-0.60407,-1.6051,0.085149,5.8255,17.563,5.5704,1.3977,2.928,0.061363,-4.0781,-0.47811,-2.8034,0.22988,5.7462,-1.6796,2.1443,-0.0044722,-0.41415,0.3887,0.026056
0.062652,0.20946,-0.62201,-1.5011,0.063875,5.6161,17.262,5.456,1.3164,2.6254,-0.020338,-4.3551,-0.48204,-3.2176,0.16602,5.6481,-1.4385,2.1328,-0.017427,-0.43993,0.13382,0.035269
0.07593,0.20347,-0.6237,-1.4079,0.044976,5.4138,16.844,5.5339,1.1991,2.4076,-0.11918,-4.3661,-0.54144,-3.891,0.10816,5.6456,-1.1694,2.1095,-0.030233,-0.45378,0.2986,0.040743
0.091179,0.22638,-0.55871,-1.3493,0.028343,5.1448,16.396,5.8029,1.0757,2.2132,-0.22287,-4.5004,-0.65063,-3.4623,0.06733,5.7262,-0.9281,2.0305,-0.040234,-0.48046,0.24924,0.041391
0.10412,0.26134,-0.52667,-1.3357,0.014876,4.8281,15.946,5.976,0.96837,2.1953,-0.31642,-4.5104,-0.79052,-2.6475,0.064787,5.8147,-0.77182,2.1295,-0.046623,-0.48059,0.5143,0.037777
0.11124,0.29396,-0.50786,-1.3646,0.0044732,4.4639,15.423,6.174,0.88208,2.1577,-0.3826,-4.5538,-0.94758,-2.4166,0.1006,5.9032,-0.74242,2.3195,-0.050281,-0.49785,0.72569,0.031782
0.1059,0.31728,-0.51093,-1.4239,0.0078402,4.3919,14.803,6.2901,0.80788,2.1481,-0.40738,-4.3865,-1.1021,-2.7055,0.1347,5.9582,-0.84756,2.3789,-0.052135,-0.50781,0.84175,0.025695
0.089151,0.32274,-0.52689,-1.4961,0.030319,4.3795,14.116,6.5805,0.73454,2.1285,-0.39196,-4.2424,-1.2446,-2.463,0.1643,5.9879,-1.0557,2.5204,-0.051989,-0.52849,0.91587,0.021097
0.056475,0.30134,-0.55315,-1.5613,0.055206,4.5581,13.562,6.7746,0.65679,2.0512,-0.35617,-4.3604,-1.3028,-2.0535,0.18563,6.024,-1.3078,2.6778,-0.049107,-0.56333,0.9751,0.0181
0.024293,0.24036,-0.57858,-1.6007,0.076963,4.654,13.822,6.8331,0.57609,1.8952,-0.32559,-4.3532,-1.2276,-1.9391,0.19643,6.0759,-1.5397,2.71,-0.043535,-0.58283,1.0114,0.01558
0.0024085,0.14421,-0.59572,-1.6031,0.093903,4.6121,14.276,6.6863,0.49739,1.6919,-0.31705,-4.298,-1.1409,-2.4194,0.19591,6.104,-1.7027,2.7732,-0.036383,-0.62874,0.99984,0.01223
0.0031813,0.018443,-0.60136,-1.5699,0.10552,4.4494,14.779,6.2814,0.42946,1.6119,-0.33217,-4.374,-1.0796,-3.2399,0.1853,6.0673,-1.767,2.7433,-0.029391,-0.65126,0.91822,0.0075091
0.02276,-0.080559,-0.59888,-1.51,0.11058,4.3654,15.545,5.9456,0.38656,1.4302,-0.35909,-4.4571,-1.0479,-4.0001,0.16637,5.9407,-1.7132,2.707,-0.024627,-0.66549,0.76855,0.0020164
0.046963,-0.14473,-0.59282,-1.435,0.10782,4.1058,15.748,5.4061,0.3825,1.1033,-0.38013,-4.478,-1.0456,-4.4009,0.14489,5.7394,-1.5515,2.6416,-0.023412,-0.66259,0.54073,-0.002748
0.075058,-0.18474,-0.58666,-1.3561,0.097122,3.9286,15.828,5.189,0.42029,0.92414,-0.38041,-4.4667,-1.0691,-4.4242,0.13067,5.5663,-1.3384,2.5111,-0.024967,-0.61854,0.2833,-0.005216
0.099781,-0.17129,-0.58265,-1.283,0.081303,3.9083,15.835,5.3425,0.48894,0.74476,-0.35328,-4.5103,-1.1098,-5.1819,0.12858,5.6234,-1.1315,2.4534,-0.026667,-0.55528,0.30193,-0.0048323
0.11938,-0.11456,-0.58164,-1.2255,0.066643,3.7421,15.343,5.5278,0.56936,0.74855,-0.30128,-4.5763,-1.1528,-5.238,0.1354,5.6834,-0.96562,2.4479,-0.026072,-0.49679,0.19363,-0.002475
0.12778,-0.089849,-0.58317,-1.1986,0.060256,3.5799,14.652,5.6569,0.64151,0.96646,-0.23392,-4.653,-1.1791,-4.914,0.14459,5.7046,-0.85783,2.4726,-0.021885,-0.45821,0.08798,0.00023048
0.12459,-0.04242,-0.58588,-1.2215,0.065521,3.6546,14.197,5.9144,0.68848,1.1744,-0.16455,-4.7896,-1.1747,-4.9406,0.14862,5.8006,-0.81047,2.5072,-0.014285,-0.44902,0.22497,0.0018537
0.10498,-0.02119,-0.58845,-1.3109,0.079702,3.6564,13.644,5.9605,0.7004,1.2851,-0.10669,-4.9717,-1.1468,-4.9159,0.14327,5.779,-0.81161,2.5857,-0.0055598,-0.4683,0.32851,0.0016415
0.073125,-0.019568,-0.5909,-1.4742,0.096201,3.6514,12.783,5.7992,0.67773,1.3007,-0.071101,-5.0597,-1.1163,-5.1121,0.12874,5.6599,-0.85307,2.6729,0.00062944,-0.51857,0.39076,-0.00040121
0.026305,-0.027287,-0.59461,-1.7032,0.10838,3.6027,12.133,5.7371,0.63082,1.2941,-0.063798,-4.9288,-1.099,-5.2712,0.11194,5.4827,-0.93323,2.7033,0.0010604,-0.55607,0.39699,-0.003541
0.042432,-0.033831,-0.6009,-1.9709,0.11157,3.5304,11.258,5.7422,0.57561,1.0966,-0.084722,-4.7468,-1.0986,-5.3616,0.096945,5.2955,-1.0678,2.6393,-0.0053211,-0.57736,0.3816,-0.0064206
0.0965,-0.024736,-0.60973,-2.2359,0.10371,3.4366,10.387,5.4048,0.52863,0.61347,-0.1287,-4.6864,-1.1081,-5.602,0.08161,5.1708,-1.255,2.6445,-0.016698,-0.56104,0.38362,-0.0074135
0.14368,0.005014,-0.61966,-2.4529,0.085462,3.2656,9.9907,5.2162,0.50285,0.24953,-0.18849,-4.7954,-1.115,-5.8579,0.067254,5.2021,-1.4844,2.5983,-0.029031,-0.51681,0.42849,-0.0053422
0.18835,0.040674,-0.62845,-2.5819,0.060406,3.0683,9.5591,5.2447,0.50507,0.23502,-0.25533,-5.0309,-1.1111,-6.1657,0.056361,5.2989,-1.5738,2.5238,-0.037859,-0.41709,0.51351,-0.00031902
0.2186,0.064381,-0.63379,-2.5963,0.034417,2.8876,9.5432,5.3884,0.53578,0.38978,-0.31577,-5.1672,-1.0981,-6.2744,0.052876,5.5227,-1.5364,2.4531,-0.040356,-0.31756,0.62001,0.0062258
0.2324,0.064513,-0.63396,-2.4904,0.012851,2.7334,9.6288,5.5263,0.58913,0.79452,-0.35079,-5.5053,-1.0871,-5.7903,0.059078,5.6282,-1.5689,2.2646,-0.036554,-0.23271,0.7151,0.012539
0.22728,0.035182,-0.62851,-2.2798,-0.00068863,2.5462,10.174,5.376,0.65345,1.1174,-0.34397,-5.7812,-1.0908,-5.5372,0.072054,5.62,-1.645,2.2308,-0.029361,-0.16533,0.77193,0.017285
0.20336,-0.019472,-0.61864,-1.9961,-0.0048885,2.4841,10.841,5.2592,0.7139,1.4969,-0.29373,-5.6411,-1.1167,-4.8893,0.085893,5.5715,-1.6977,2.3368,-0.023004,-0.1264,0.77803,0.019462
0.16862,-0.087898,-0.6068,-1.6806,-0.00054258,2.5408,11.146,5.2388,0.75595,1.8461,-0.21714,-5.3983,-1.1635,-4.168,0.094903,5.3777,-1.6534,2.419,-0.020628,-0.12933,0.73371,0.018272
0.12025,-0.16083,-0.59576,-1.3764,0.011584,2.637,11.162,5.3054,0.76874,2.0532,-0.1434,-5.1451,-1.2184,-3.5482,0.095289,5.1195,-1.503,2.4756,-0.023015,-0.17299,0.64875,0.013681
0.074207,-0.23315,-0.58793,-1.1189,0.031385,2.7549,11.161,5.4213,0.74672,2.1113,-0.10113,-4.9635,-1.2519,-3.5494,0.086845,4.8188,-1.2959,2.5332,-0.028567,-0.24829,0.53798,0.00709
0.007661,-0.29588,-0.58508,-0.92901,0.055799,2.835,10.999,5.5852,0.68824,2.0534,-0.10531,-4.8446,-1.2314,-3.885,0.072981,4.6008,-1.1124,2.5106,-0.034256,-0.34129,0.41101,0.0010067
-0.0022782,-0.34211,-0.58788,-0.81097,0.079049,2.894,10.616,5.7713,0.59557,1.8377,-0.15158,-4.7556,-1.1714,-3.8711,0.058235,4.5518,-1.0181,2.4878,-0.037563,-0.43765,0.28482,-0.0022074
0.020755,-0.36629,-0.5955,-0.75117,0.096617,2.8924,10.169,5.8228,0.47836,1.446,-0.22063,-4.7766,-1.1067,-4.471,0.045443,4.7398,-1.0432,2.4647,-0.038172,-0.52109,0.18233,-0.0016925
0.011327,-0.34006,-0.60533,-0.72331,0.10563,2.8309,9.5254,5.8202,0.35566,0.98658,-0.28786,-5.0172,-1.0594,-5.2154,0.035375,4.9138,-1.1708,2.366,-0.037879,-0.5893,0.11407,0.0014105
-0.012928,-0.29841,-0.61347,-0.70121,0.10516,2.7239,9.1721,5.7132,0.2514,0.57415,-0.33284,-5.4444,-1.0383,-6.4278,0.028407,5.0052,-1.346,2.2739,-0.038994,-0.60202,0.051179,0.0049743
-0.016028,-0.27063,-0.61608,-0.671,0.096329,2.592,9.0386,5.5359,0.18437,0.12588,-0.34556,-5.8249,-1.0514,-7.2122,0.025102,5.0452,-1.5063,2.1696,-0.042729,-0.57876,-0.00013756,0.0075983
0.010986,-0.26179,-0.61078,-0.63508,0.082008,2.4402,9.053,5.3412,0.1638,-0.11925,-0.32856,-5.9356,-1.091,-7.147,0.025036,4.9504,-1.6144,2.1696,-0.048686,-0.54297,-0.063528,0.0093322
0.032502,-0.27897,-0.59763,-0.60692,0.066101,2.387,8.7908,5.2221,0.18967,-0.33024,-0.29624,-5.8282,-1.1601,-7.0485,0.025552,4.7064,-1.6712,2.2373,-0.055409,-0.46214,-0.054523,0.0109
0.060924,-0.32022,-0.57919,-0.59864,0.052243,2.2629,8.8888,5.0747,0.2518,-0.27985,-0.26977,-5.7469,-1.2362,-7.3329,0.0237,4.3978,-1.705,2.2453,-0.060972,-0.38273,0.062845,0.012529
0.087,-0.37916,-0.55963,-0.61141,0.042055,2.1901,9.1069,4.8303,0.33177,-0.064118,-0.26728,-5.8048,-1.3408,-7.2707,0.018933,4.1861,-1.7412,2.2623,-0.06324,-0.32857,0.05172,0.013739
0.11582,-0.4429,-0.54343,-0.63777,0.035083,2.1121,9.1555,4.6934,0.40869,0.037871,-0.29476,-5.6615,-1.3827,-7.1006,0.01411,4.111,-1.777,2.3551,-0.060804,-0.27451,0.11432,0.013982
0.13847,-0.48853,-0.53418,-0.66952,0.032206,2.0416,9.1808,5.1262,0.46587,0.28083,-0.34311,-5.5088,-1.3344,-6.3536,0.01443,4.1751,-1.7871,2.5677,-0.053973,-0.22673,0.253,0.013265
0.15226,-0.49038,-0.53359,-0.69969,0.035095,2.0316,9.0266,5.5598,0.49588,0.66889,-0.3931,-5.5728,-1.3633,-5.1498,0.026781,4.4631,-1.7508,2.6503,-0.044237,-0.19876,0.33008,0.012433
0.15426,-0.45066,-0.54096,-0.72102,0.041024,2.0433,8.7099,5.8106,0.50121,0.96571,-0.42551,-5.4878,-1.3646,-4.2805,0.050783,4.7352,-1.6445,2.6256,-0.033202,-0.1953,0.38751,0.012958
0.14375,-0.38238,-0.55333,-0.72676,0.044646,2.0695,8.5799,6.0074,0.49002,1.3269,-0.43048,-5.4025,-1.304,-3.6463,0.076921,4.9378,-1.4876,2.5241,-0.022429,-0.19589,0.4084,0.016025
0.12382,-0.30529,-0.56673,-0.71119,0.042476,2.0403,8.3195,6.0615,0.46851,1.3888,-0.40999,-5.2296,-1.277,-2.9905,0.096265,5.1666,-1.3719,2.54,-0.013914,-0.20721,0.40501,0.021539
0.094311,-0.24112,-0.57762,-0.67018,0.035053,2.0218,8.5205,5.8332,0.4365,1.2314,-0.37423,-4.8758,-1.2636,-2.8668,0.10392,5.1602,-1.3618,2.558,-0.0099341,-0.25974,0.37988,0.028006
0.06285,-0.20952,-0.58397,-0.60465,0.026334,2.1178,8.7481,5.5734,0.39044,0.90798,-0.33705,-4.6766,-1.265,-3.3155,0.098833,4.9117,-1.4544,2.5538,-0.011901,-0.3518,0.33283,0.03314
