0,0,0,0,0,0,0,0,0,0,0,0,0,0,0,0,0,0,0,0,0,0
0.0056012,0.012319,-0.0073663,-0.031678,-0.0053629,0.027782,0.067035,-0.052099,-0.030966,-0.34086,0.035639,0.3572,-0.013353,-0.25108,0.013209,-0.0033792,0.0097996,-0.0068033,0.0019098,-0.033403,0.02152,-0.0062002
0.010678,0.028748,-0.016761,-0.058663,-0.00883,0.09655,0.11415,-0.17446,-0.047466,-0.63358,0.056327,0.83325,-0.062071,-0.3488,0.030718,-0.020124,0.096159,0.0014335,-0.00049973,-0.053467,0.047451,-0.011275
0.013621,0.043146,-0.025751,-0.077017,0.003875,0.16281,0.29838,-0.18482,-0.056004,-0.89346,0.067531,1.1834,-0.16172,-0.34533,0.05077,-0.019864,0.21841,0.0083932,-0.006247,-0.061306,0.072767,-0.015522
0.013339,0.04456,-0.031799,-0.088286,0.02741,0.26106,0.42728,-0.11511,-0.066873,-1.1721,0.081308,1.2948,-0.36679,-0.35329,0.071209,0.0071815,0.34704,0.010478,-0.013288,-0.068632,0.090525,-0.019541
0.0094023,0.030379,-0.03323,-0.099035,0.04688,0.33503,0.49528,0.050619,-0.086615,-1.255,0.10678,1.1009,-0.58643,-0.57717,0.088041,0.060687,0.46387,0.0031338,-0.018987,-0.079139,0.095073,-0.023778
0.0025231,0.010455,-0.030033,-0.11477,0.059504,0.32709,0.5264,0.2458,-0.11329,-1.1629,0.14485,0.64577,-0.65299,-0.73601,0.096395,0.12599,0.55449,-0.0075829,-0.021235,-0.083984,0.085066,-0.028188
-0.0054689,-0.023199,-0.023976,-0.13603,0.062429,0.27614,0.5864,0.31649,-0.13736,-1.1354,0.18738,0.12789,-0.77766,-1.1723,0.093055,0.16491,0.59685,-0.024453,-0.019668,-0.082236,0.063904,-0.032184
-0.012566,-0.066721,-0.017926,-0.15878,0.057797,0.22706,0.60881,0.49561,-0.14675,-1.3771,0.21827,-0.32554,-0.69143,-1.8242,0.078263,0.14471,0.5584,-0.056385,-0.015974,-0.093576,0.037761,-0.034922
-0.017497,-0.12518,-0.014875,-0.17568,0.048204,0.24917,0.6534,0.84879,-0.13259,-1.3695,0.21809,-0.63068,-0.57761,-2.4905,0.055769,-0.026209,0.40858,-0.097681,-0.012912,-0.098332,0.013002,-0.03563
-0.019885,-0.17433,-0.017083,-0.17955,0.036612,0.24633,0.63651,1.4005,-0.093463,-1.0774,0.17275,-0.67525,-0.43894,-2.5983,0.030598,-0.21983,0.13782,-0.13949,-0.012753,-0.11432,-0.0059206,-0.033674
-0.019983,-0.21589,-0.025432,-0.16811,0.025306,0.34062,0.69448,1.6724,-0.037122,-0.97583,0.082848,-0.49729,-0.29068,-2.394,0.0072233,-0.44188,-0.23034,-0.15124,-0.016132,-0.11511,-0.017591,-0.028564
-0.018237,-0.24858,-0.038924,-0.14411,0.016838,0.50497,1.1514,1.9718,0.021214,-0.72295,-0.032508,-0.23127,-0.18512,-2.3952,-0.0098267,-0.63952,-0.64658,-0.12209,-0.021608,-0.083033,-0.02378,-0.020322
-0.014912,-0.26874,-0.054609,-0.11327,0.012359,0.66373,1.5494,2.4064,0.064119,-0.69021,-0.14053,0.072895,-0.16298,-2.4332,-0.014984,-0.65303,-1.0557,-0.083616,-0.02603,-0.05313,-0.028647,-0.0099842
-0.010134,-0.26002,-0.068309,-0.084914,0.013251,0.86837,1.9386,2.6568,0.078785,-0.72947,-0.20599,0.35283,-0.23561,-2.3536,-0.0063707,-0.62933,-1.4068,-0.058894,-0.025793,-0.032351,-0.036329,0.0004343
-0.004352,-0.25789,-0.075912,-0.07085,0.02499,1.0562,2.2037,3.0293,0.061889,-0.87732,-0.202,0.5577,-0.39906,-2.2049,0.014749,-0.56544,-1.6568,-0.023054,-0.018938,0.0041953,-0.047678,0.0086359
0.0013733,-0.24817,-0.074745,-0.079994,0.046111,1.0184,2.2593,3.3799,0.019851,-1.1305,-0.12193,0.63303,-0.63184,-2.0611,0.046622,-0.46182,-1.7803,0.010567,-0.0070455,0.01924,-0.058478,0.012864
0.0057562,-0.20074,-0.064636,-0.11452,0.0691,0.90852,2.3067,3.4933,-0.035321,-1.4941,0.012209,0.55658,-0.92824,-1.828,0.081613,-0.12143,-1.7738,-0.00031825,0.0056363,0.036664,-0.06052,0.012484
0.0079866,-0.16339,-0.048298,-0.16925,0.090434,0.87825,2.3597,3.5022,-0.091582,-1.5137,0.16171,0.3651,-1.2411,-1.8393,0.1173,0.18952,-1.6549,0.0073514,0.015093,0.022847,-0.04973,0.0081947
0.0081924,-0.12915,-0.03056,-0.23223,0.11013,0.85474,2.3873,3.3244,-0.14012,-1.5993,0.29084,0.094556,-1.3079,-2.2199,0.15439,0.4575,-1.4649,0.026906,0.01924,-0.0076119,-0.024025,0.0018211
0.0072637,-0.097412,-0.017143,-0.28902,0.13105,0.98049,2.3179,3.0135,-0.17563,-1.7745,0.37703,-0.18276,-1.2001,-2.6665,0.19014,0.67516,-1.2602,0.030937,0.017856,-0.010864,0.0053682,-0.0043492
0.0064286,-0.071739,-0.012859,-0.32911,0.15413,1.0977,2.1743,3.1977,-0.19575,-1.9257,0.41161,-0.41263,-1.1135,-3.1416,0.21884,0.85737,-1.0922,0.048562,0.012006,-0.045619,0.035604,-0.0085072
0.0065395,-0.059206,-0.020596,-0.34724,0.17493,1.3387,2.3411,3.6255,-0.2006,-1.9123,0.39623,-0.63165,-1.0203,-3.281,0.23554,0.97963,-0.99455,0.066514,0.0036628,-0.046828,0.041597,-0.010019
0.0084096,-0.069295,-0.039489,-0.34173,0.18895,1.6056,2.6202,4.2249,-0.19241,-1.9914,0.33966,-0.93665,-0.89827,-3.127,0.23925,1.0996,-0.9798,0.12222,-0.0049271,-0.026802,0.028363,-0.009466
0.011268,-0.083898,-0.063539,-0.31529,0.19635,2.0116,2.8577,4.4693,-0.17533,-2.1448,0.25714,-1.1015,-0.66838,-2.88,0.23127,1.0909,-1.0411,0.17501,-0.012076,-0.0090161,-0.06237,-0.0080868
0.014816,-0.10975,-0.075242,-0.27509,0.19984,2.3748,3.0422,4.866,-0.15477,-2.2245,0.17127,-1.2345,-0.54416,-2.5573,0.21504,0.9216,-1.1538,0.21522,-0.016814,0.03891,-0.0026592,-0.0069305
0.015776,-0.13569,-0.059489,-0.23003,0.20243,2.6343,3.3109,5.3898,-0.1359,-2.0854,0.1091,-1.3989,-0.47586,-2.5266,0.19633,0.97156,-1.2797,0.23953,-0.018377,0.079813,0.081115,-0.0061809
0.013666,-0.16133,-0.025078,-0.18915,0.2072,2.78,3.6471,5.5937,-0.12195,-1.9312,0.092017,-1.2267,-0.48285,-2.2425,0.2091,1.3951,-1.382,0.3014,-0.016348,0.11219,0.068714,-0.0052118
0.0031542,-0.19886,0.016315,-0.16071,0.21407,2.7487,3.9897,5.8862,-0.11344,-1.9051,0.12502,-1.1532,-0.54338,-2.0695,0.23833,1.8036,-1.4463,0.341,-0.011439,0.10492,-0.04129,-0.0033306
-0.0033491,-0.19881,0.057679,-0.14909,0.21925,2.632,4.1694,6.0548,-0.10901,-1.6021,0.19549,-1.2331,-0.64978,-1.7158,0.26935,2.0761,-1.482,0.38333,-0.0055672,0.079599,0.10956,-0.00050965
0.0044087,-0.19334,0.093507,-0.15388,0.21964,2.4647,4.1662,5.8768,-0.10717,-1.3526,0.28313,-1.2446,-0.78631,-1.8081,0.30602,2.2504,-1.5084,0.473,-0.0011188,0.0631,0.30638,0.0024444
0.025506,-0.18873,0.11883,-0.17263,0.21516,2.2915,4.0035,5.8736,-0.10736,-1.4236,0.37046,-1.248,-0.92974,-2.2347,0.34618,2.3248,-1.5469,0.53966,9.2957e-05,0.0076333,0.44559,0.0043227
0.04787,-0.14868,0.12922,-0.20147,0.20725,2.3027,3.7574,5.7294,-0.10906,-1.6417,0.44597,-1.0988,-1.0808,-2.3022,0.38562,2.228,-1.6153,0.61794,-0.0020583,-0.033609,0.56923,0.0043398
0.064917,-0.11155,0.12216,-0.2349,0.19885,2.5468,3.7917,5.4419,-0.11036,-1.7515,0.50338,-1.0256,-1.1888,-2.4478,0.41698,2.0373,-1.7178,0.7409,-0.0057,-0.060563,0.63415,0.0026359
0.079694,-0.080094,0.098016,-0.26979,0.19334,2.9339,3.9886,5.1374,-0.10804,-1.733,0.5417,-0.71235,-1.0967,-2.4467,0.44337,1.8848,-1.8381,0.80606,-0.0083023,-0.099973,0.64339,-7.7047e-05
0.089902,-0.061478,0.059398,-0.30766,0.1935,3.4328,4.3735,5.009,-0.099069,-1.7439,0.56583,-0.33843,-1.0362,-2.8603,0.47393,1.5084,-1.9444,0.95123,-0.0084766,-0.13179,0.57758,-0.0030231
0.095405,-0.055673,0.01163,-0.35041,0.20565,3.9724,5.0108,5.3042,-0.081748,-1.9781,0.58517,-0.099825,-1.0583,-3.6693,0.50962,1.2328,-2.0063,1.1065,-0.006475,-0.11733,0.45225,-0.0054113
0.093858,-0.061174,-0.036219,-0.39514,0.22857,4.4396,5.7698,5.3459,-0.056021,-2.0359,0.6088,0.20107,-1.0846,-4.0875,0.54154,1.6406,-2.0118,1.3756,-0.003169,-0.093295,0.26918,-0.0064626
0.084236,-0.072364,-0.066141,-0.43232,0.25779,4.8056,6.5415,5.2589,-0.023944,-1.9548,0.63877,0.64492,-0.94426,-4.2528,0.57161,2.0194,-1.9752,1.8051,0.001094,-0.059271,0.10424,-0.0057979
0.066224,-0.084717,-0.069965,-0.44811,0.29196,5.0727,7.3294,5.3459,0.0097233,-1.9353,0.66954,0.94887,-0.84634,-4.4874,0.59701,2.3972,-1.9288,2.0185,0.0062887,-0.047884,0.15715,-0.003746
0.041013,-0.094893,-0.06255,-0.43205,0.32789,5.2256,7.9857,5.5655,0.038181,-1.9833,0.69328,1.0972,-0.76948,-4.6509,0.6332,2.6253,-1.903,2.1027,0.011971,-0.030159,0.3094,-0.00086594
0.012352,-0.10233,-0.052261,-0.38588,0.36051,5.2618,8.4249,5.4502,0.054503,-2.0811,0.70407,1.0679,-0.72375,-4.2072,0.66733,2.888,-1.9072,2.2754,0.017726,0.0012095,0.22415,0.0036117
-0.01344,-0.10263,-0.040782,-0.32364,0.38365,5.2242,8.5936,5.7706,0.053521,-2.1491,0.70329,0.92016,-0.70677,-2.9551,0.69237,3.1374,-1.927,2.5032,0.023948,0.02454,0.35248,0.011142
-0.0046969,-0.094338,-0.024143,-0.26367,0.3917,5.1087,8.7016,6.1742,0.03297,-2.095,0.70685,0.7806,-0.72567,-2.0779,0.71652,3.3263,-1.9355,2.9941,0.031174,0.038573,0.85443,0.021708
-0.0044436,-0.084596,0.0069602,-0.22075,0.38286,5.0082,8.9192,6.408,-0.0058694,-2.053,0.74167,0.68294,-0.77483,-1.6293,0.73087,3.429,-1.9105,3.2423,0.038805,0.071133,1.4214,0.03223
0.002602,-0.070799,0.067747,-0.20089,0.36116,5.0928,9.1947,6.5079,-0.058179,-2.0716,0.82981,0.68527,-0.85112,-1.3014,0.75353,3.3336,-1.8465,3.5267,0.045091,0.12828,1.8928,0.040176
0.018069,-0.030487,0.14633,-0.20026,0.33449,5.3435,9.4263,6.7432,-0.11647,-1.8097,0.98113,0.68397,-0.94111,-0.84393,0.78319,3.1759,-1.7577,4.1376,0.048157,0.14433,2.1792,0.042601
0.017797,0.029262,0.21609,-0.21006,0.31077,5.6811,9.4642,6.9708,-0.17228,-1.5621,1.1929,0.72235,-1.0443,-0.65403,0.81244,3.0759,-1.6735,4.7737,0.046815,0.14411,2.41,0.037375
0.0082492,0.087388,0.24149,-0.22186,0.29544,6.1448,10.073,7.1448,-0.21784,-1.3212,1.4473,0.99494,-1.1351,-0.53035,0.85685,3.1677,-1.6282,5.5618,0.040806,0.15063,2.5963,0.018184
-0.01163,0.13754,0.21532,-0.22797,0.29069,6.7301,10.793,7.4282,-0.24698,-1.17,1.7121,1.1792,-1.1,-0.75962,0.92194,3.448,-1.6472,6.0141,0.030869,0.15697,2.4593,-0.016847
-0.033931,0.17358,0.1981,-0.22156,0.29649,7.2798,11.561,7.8193,-0.25594,-1.0299,1.9456,1.1947,-1.1318,-1.1429,0.97985,3.7767,-1.7379,6.1545,0.018808,0.15187,2.1235,0.021891
-0.050008,0.19368,0.0053245,-0.19904,0.30898,7.7028,12.465,7.9677,-0.24467,-0.90898,2.1074,1.4243,-1.1008,-1.0823,1.0295,4.1133,-1.8861,6.261,0.0074353,0.12758,1.6172,0.050574
-0.049538,0.1944,0.010692,-0.16028,0.324,7.953,13.213,8.0015,-0.21841,-1.0386,2.1767,1.6439,-1.0491,-0.67027,1.0754,4.4187,-2.0588,6.2261,0.00033587,0.10956,1.0676,0.053147
-0.029093,0.17968,0.22527,-0.10892,0.34148,8.0598,13.855,7.9891,-0.18752,-1.0591,2.1707,1.6498,-1.0379,-0.27421,1.1133,4.3957,-2.2086,5.9661,0.00028761,0.10929,1.5363,0.013037
-0.0024348,0.14793,0.33003,-0.055778,0.36099,8.0371,14.432,7.8798,-0.16397,-1.2134,2.1375,1.5466,-1.034,-0.48612,1.1407,4.2156,-2.2901,5.6067,0.0075012,0.078172,2.3393,0.080072
0.023954,0.1099,0.60915,-0.01841,0.38109,7.9512,14.7,8.2198,-0.1557,-1.3393,2.123,1.4239,-1.0435,-0.26021,1.1602,3.9129,-2.2879,5.0108,0.01984,0.033814,2.9586,0.16611
0.03154,0.061371,0.97296,-0.012231,0.39886,7.8946,14.736,8.2881,-0.16294,-1.4744,2.1507,1.4392,-1.0515,0.76681,1.182,3.4402,-2.2188,4.782,0.033591,-0.0026069,3.1633,0.22331
0.04588,0.046771,1.3967,-0.041385,0.40977,7.8873,14.827,8.2562,-0.17893,-1.4099,2.2243,1.6553,-1.0586,1.2505,1.2169,2.9988,-2.1124,5.0997,0.044876,-0.016019,4.4813,0.27014
0.088679,0.045023,1.7271,-0.095392,0.41024,7.8866,15.126,8.2706,-0.19344,-1.3049,2.3317,1.9273,-1.0589,1.2767,1.2682,2.6622,-2.0021,5.3871,0.051229,-0.0057895,6.329,0.29361
0.14612,0.093244,1.9614,-0.15172,0.40127,7.8938,15.339,8.0141,-0.19704,-1.073,2.4489,2.0812,-1.0544,1.784,1.3383,2.5287,-1.9192,5.6732,0.051956,0.02357,7.3318,0.3005
0.16878,0.19294,2.0686,-0.18512,0.38772,7.8932,15.554,7.9072,-0.18475,-0.9502,2.5439,2.1322,-1.0451,2.3253,1.4357,2.6523,-1.8841,5.8222,0.047466,0.071987,7.9163,0.2888
0.1294,0.27801,2.0827,-0.17884,0.3732,7.8547,15.735,8.0981,-0.15799,-0.9683,2.581,1.9811,-1.0345,2.3754,1.5504,3.0274,-1.8994,6.2226,0.038608,0.12008,7.9226,0.26466
0.14358,0.33879,2.0185,-0.13187,0.35898,7.7356,15.748,8.7517,-0.1232,-1.0454,2.526,1.6051,-1.0251,2.0011,1.6655,3.5142,-1.9484,6.4993,0.025785,0.16022,7.5463,0.23021
0.19257,0.4404,1.9379,-0.062825,0.34682,7.5359,15.67,8.652,-0.088621,-1.4089,2.3675,1.2209,-1.0193,1.5599,1.7633,3.9633,-2.002,6.8023,0.0096549,0.19869,6.8716,0.19071
0.28637,0.54356,1.8063,-0.0089255,0.3382,7.2621,15.336,9.0123,-0.061629,-1.6838,2.1375,0.84602,-1.0183,1.708,1.8291,4.3999,-2.0323,6.8908,-0.0052059,0.23037,6.1488,0.16002
0.35798,0.61688,1.6433,-0.012981,0.33172,6.9639,14.721,9.9141,-0.047181,-1.9019,1.9025,0.58875,-1.0218,1.6719,1.857,4.7062,-2.0255,6.7949,-0.00086737,0.24935,5.2384,0.16408
0.43528,0.66627,1.8573,-0.10071,0.3253,6.7368,14.073,10.49,-0.046113,-2.2343,1.732,0.53506,-1.0285,0.82389,1.849,4.6934,-1.9835,6.5678,0.014014,0.25054,4.3099,0.19747
0.54272,0.68724,2.1072,-0.26405,0.31869,6.5072,13.4,10.173,-0.054183,-2.5052,1.6705,0.61418,-1.0364,0.12769,1.8138,4.4979,-1.9178,6.4327,0.022748,0.25532,3.9585,0.22348
0.64017,0.67806,2.4863,-0.46086,0.31322,6.5189,12.915,9.7401,-0.064154,-2.3471,1.7289,0.63336,-1.0436,0.49642,1.7665,4.1854,-1.8447,6.444,0.03058,0.27702,4.0804,0.24633
0.67872,0.63399,2.8053,-0.63111,0.31245,6.7331,12.476,9.6608,-0.070073,-2.0702,1.8895,0.65882,-1.0491,1.3058,1.7237,3.7806,-1.7826,6.4834,0.026607,0.32146,3.4963,0.24359
0.6039,0.55842,3.1762,-0.72477,0.31803,7.036,12.355,9.4596,-0.070313,-1.8201,2.1161,0.73765,-1.0534,2.269,1.6958,3.408,-1.7484,6.71,0.022005,0.36171,3.0911,0.28494
0.62954,0.46482,3.4926,-0.72725,0.32507,7.3497,12.684,9.0979,-0.067195,-1.8147,2.3639,0.78705,-1.0576,3.0531,1.6887,3.1294,-1.7522,7.0836,-0.016125,0.38547,3.3209,0.38721
0.71924,0.41048,3.9051,-0.66411,0.32846,7.552,13.305,8.9586,-0.064067,-1.7993,2.5908,0.7419,-1.063,3.483,1.7046,2.9704,-1.795,7.6987,0.0017651,0.39108,3.9291,0.45301
0.81237,0.38829,4.2233,-0.58324,0.32614,7.6061,13.246,9.0078,-0.06275,-1.9393,2.7629,0.66038,-1.0698,3.625,1.7389,2.924,-1.8667,8.4674,0.068221,0.38058,4.2938,0.49916
0.80923,0.40583,4.4709,-0.52776,0.3187,7.5073,12.733,9.2458,-0.063336,-2.2851,2.8586,0.33307,-1.0769,3.3116,1.7786,3.0188,-1.9492,9.094,0.1122,0.37175,4.0331,0.45536
0.74521,0.46155,4.5259,-0.51067,0.30864,7.2514,12.695,9.5848,-0.065416,-2.4217,2.8711,-0.18765,-1.0821,2.9628,1.8057,3.0511,-2.0202,9.4761,0.12685,0.36609,4.3559,0.47451
0.89701,0.55447,4.4894,-0.49712,0.29825,6.9206,12.297,9.8264,-0.068548,-2.5621,2.8073,-0.30286,-1.0827,2.7414,1.8143,3.1631,-2.0574,9.5197,0.1133,0.34873,4.8098,0.52324
0.99954,0.67181,4.5815,-0.40853,0.28936,6.4794,11.395,9.8251,-0.071652,-2.6671,2.6854,-0.58041,-1.0763,1.9836,1.8123,3.4332,-2.0436,9.2012,0.23988,0.3366,5.3338,0.48904
1.1737,0.78247,4.4335,-0.15906,0.28642,6.1727,11.156,9.7912,-0.072791,-2.9009,2.5291,-0.97025,-1.0621,1.7106,1.8124,3.6741,-1.9735,8.5754,0.33174,0.34255,6.1026,0.51242
1.4452,0.83642,4.097,0.29757,0.29375,6.0316,10.622,9.3896,-0.070585,-2.7171,2.3554,-1.2463,-1.0413,2.4843,1.8248,3.8568,-1.857,7.759,0.39067,0.38165,7.1603,0.6461
1.6426,0.94908,3.6183,0.94388,0.30897,5.4593,9.5046,9.1242,-0.066474,-2.6272,2.1695,-1.508,-1.0178,2.6812,1.8547,3.9393,-1.719,7.0116,0.39781,0.42982,7.9977,0.7325
1.746,1.074,3.4033,1.7061,0.32601,5.0297,8.6457,8.8631,-0.064435,-2.6564,1.9737,-2.1004,-0.99633,2.3068,1.9047,3.951,-1.5927,6.8108,0.45509,0.48744,9.1632,0.77303
1.7916,1.1019,3.4462,2.4817,0.33845,4.9072,8.0241,8.7158,-0.067272,-2.8636,1.7807,-2.5566,-0.98092,1.9652,1.9756,3.8827,-1.51,6.9812,0.53397,0.54387,9.8996,0.67085
1.79,1.1244,3.5081,3.1691,0.34038,4.5306,7.9218,8.8423,-0.073078,-3.0225,1.6173,-2.8985,-0.97349,2.0622,2.0587,3.8154,-1.4931,7.3032,0.57378,0.56067,10.129,0.72152
1.8622,1.1687,3.8228,3.6842,0.32708,4.3024,7.3804,8.9136,-0.075351,-3.0017,1.5098,-2.9623,-0.9731,2.0784,2.1336,3.7967,-1.5475,7.8445,0.62884,0.58531,9.6407,0.82675
1.7738,1.1789,4.4826,3.9685,0.2957,4.3014,7.2059,8.9724,-0.066823,-2.9299,1.4634,-2.9878,-0.97686,2.5325,2.181,3.7502,-1.6563,8.3896,0.63875,0.58949,9.322,0.86753
1.6598,1.2302,4.9953,3.9973,0.24982,4.4822,6.968,8.9789,-0.044096,-2.696,1.4646,-3.0437,-0.98171,2.5434,2.1921,3.6485,-1.778,8.655,0.76286,0.62054,9.5096,0.92745
1.5781,1.2352,5.392,3.7913,0.20117,4.4597,6.9091,9.0159,-0.0099682,-2.6177,1.4956,-2.9167,-0.98616,1.8804,2.1689,3.6601,-1.8597,8.6169,0.73892,0.64743,9.2934,0.96107
1.6888,1.2798,5.8454,3.4231,0.16321,4.2742,6.7328,8.9481,0.027551,-2.6769,1.5375,-2.7318,-0.99047,1.401,2.1226,3.663,-1.8576,8.2515,0.70096,0.59392,8.6052,1.0183
1.8804,1.3087,6.2567,3.0054,0.14522,4.0467,6.9817,8.9508,0.058295,-2.9417,1.5648,-2.5542,-0.9952,0.76151,2.0693,3.5996,-1.7543,7.6372,0.80076,0.55936,8.3766,1.057
2.0203,1.2955,6.4436,2.6582,0.15189,3.6822,7.2776,8.5825,0.073212,-3.0744,1.5499,-2.6073,-0.99956,0.17177,2.0206,3.6941,-1.5688,6.8988,1.0129,0.49644,8.7029,1.0913
2.206,1.234,6.356,2.4678,0.18035,3.5469,6.782,8.0977,0.066939,-3.1102,1.4769,-2.759,-1.0013,0.83259,1.9775,3.8572,-1.3494,6.216,1.2296,0.43459,9.1674,1.0472
2.2618,1.275,6.3057,2.4614,0.2184,3.5717,5.8962,7.4628,0.039831,-3.306,1.3522,-2.9202,-0.9967,1.0551,1.9389,3.9852,-1.1507,5.8587,1.4055,0.40436,9.7975,1.0883
2.3462,1.2508,6.225,2.6077,0.25177,3.3449,5.0316,6.7395,-0.0015214,-3.4392,1.2058,-3.2776,-0.98614,1.3792,1.9092,4.1644,-1.0172,5.9297,1.6207,0.39018,10.351,1.1984
2.5331,1.2239,6.0389,2.8318,0.27355,3.6019,4.6383,6.5425,-0.046427,-3.6166,1.0815,-3.5087,-0.9696,1.6313,1.8992,4.2783,-0.97624,6.2165,1.883,0.43101,11.003,1.3328
2.6705,1.2466,5.7618,3.0393,0.2823,3.7743,4.4253,6.3339,-0.083753,-3.7587,1.0166,-3.7963,-0.95628,1.6333,1.9133,4.3666,-1.0334,6.5128,2.2848,0.48614,11.591,1.4106
2.6413,1.2338,5.5674,3.1423,0.27769,3.8092,3.6272,6.1774,-0.10528,-3.7268,1.0155,-3.9095,-0.94759,1.8618,1.9416,4.5042,-1.1707,6.6879,2.6798,0.5147,12.045,1.4082
2.6034,1.2961,5.3874,3.0806,0.25858,3.8201,2.9942,6.5704,-0.10833,-3.7503,1.0461,-3.9926,-0.95805,1.6181,1.972,4.486,-1.3502,6.6863,3.0366,0.55866,12.347,1.385
2.7693,1.4308,5.0432,2.8369,0.22544,3.8646,3.062,6.9192,-0.096851,-3.8007,1.0712,-4.0699,-0.97931,1.2698,1.9966,4.3165,-1.5264,6.5155,3.2911,0.56388,12.25,1.4699
2.8257,1.5107,4.8038,2.4446,0.18258,3.8606,3.1182,7.4931,-0.079366,-3.8943,1.072,-4.1413,-1.0426,1.0911,2.0128,4.0956,-1.6643,6.2052,3.3457,0.5128,11.791,1.5241
2.7893,1.5179,4.9176,1.9834,0.14279,3.7008,3.2982,7.7855,-0.065182,-3.9298,1.047,-4.4344,-1.064,0.59982,2.0225,3.7922,-1.7548,5.7874,3.2135,0.49738,10.926,1.4477
2.6634,1.5806,5.2444,1.5596,0.12121,3.6518,3.2672,7.9538,-0.061267,-3.974,1.004,-4.7995,-1.0287,-0.12414,2.0291,3.4926,-1.8128,5.3207,2.9324,0.49568,9.7829,1.497
2.534,1.6652,5.2494,1.2714,0.11454,3.5291,3.3607,7.8547,-0.07016,-4.0665,0.94929,-4.9777,-1.084,-0.30595,2.0329,3.3296,-1.8612,4.9043,2.7902,0.4828,8.6977,1.589
2.3872,1.7081,5.3521,1.1627,0.11997,3.3,3.1337,7.3295,-0.089734,-4.2026,0.88213,-4.9597,-1.0222,-0.63811,2.0291,3.2072,-1.9183,4.6728,2.4916,0.50178,8.2626,1.6575
2.2726,1.7492,5.3264,1.1942,0.14058,3.1623,2.829,6.8959,-0.11485,-4.2459,0.79889,-4.8918,-0.93347,-1.2145,2.008,2.9998,-1.9948,4.6897,2.404,0.55394,8.749,1.7113
2.1884,1.7595,5.2221,1.2629,0.17102,3.0585,2.4156,6.4958,-0.13928,-4.21,0.69934,-4.8324,-0.87349,-1.6116,1.9612,2.8954,-2.0936,4.9019,2.6409,0.57221,9.7797,1.7642
2.3771,1.6875,5.1741,1.2566,0.20237,2.7658,1.9535,6.1065,-0.15703,-4.1068,0.58862,-4.8106,-0.82542,-1.6924,1.8866,2.9004,-2.2087,5.1244,2.8824,0.61317,11.05,1.7532
2.8,1.6361,5.0226,1.1057,0.22863,2.3469,1.4733,6.1623,-0.16376,-4.0721,0.47534,-4.8395,-0.80451,-1.2733,1.7875,2.7036,-2.3264,5.2313,3.1735,0.66109,12.215,1.6741
3.186,1.6865,5.1524,0.81336,0.24479,1.9145,1.3197,6.3746,-0.15908,-4.0435,0.3664,-4.8806,-0.80372,-1.2887,1.6707,2.5824,-2.4299,5.1463,3.2951,0.66263,13.105,1.5368
3.3899,1.6142,5.152,0.45829,0.24772,1.7665,1.0148,6.7388,-0.14779,-3.946,0.27273,-4.6982,-0.83128,-1.5313,1.5451,2.3122,-2.5048,4.9568,3.5466,0.6263,13.441,1.3929
3.4281,1.4728,5.3083,0.16796,0.2374,1.7487,0.69508,7.1385,-0.13735,-3.9658,0.21336,-4.7439,-0.87354,-2.0298,1.4204,1.9449,-2.5395,4.781,3.7403,0.55035,13.021,1.2874
3.3969,1.4178,5.7424,0.065532,0.21743,1.8719,0.7908,7.5301,-0.13289,-4.0029,0.20435,-4.8586,-0.93847,-1.8478,1.3053,1.7286,-2.5293,4.5771,3.7294,0.44573,12.235,1.1107
3.0904,1.431,6.0411,0.21459,0.19392,1.9744,0.96325,8.04,-0.13461,-4.1009,0.25385,-4.8267,-1.0043,-1.563,1.2115,1.9442,-2.4802,4.3721,3.5562,0.32024,11.47,1.009
2.5873,1.4731,6.1112,0.5921,0.17272,2.0761,0.90782,8.1348,-0.13928,-4.1937,0.35571,-4.8402,-1.1072,-1.7064,1.1607,2.1586,-2.4093,4.2048,3.4333,0.20663,10.715,0.98817
2.2674,1.5659,5.9614,1.1029,0.15657,2.2434,0.96063,7.9133,-0.14331,-4.3766,0.48256,-4.9011,-1.1248,-1.8819,1.1552,2.2568,-2.3365,4.1309,3.1723,0.13692,10.249,0.91325
2.121,1.7008,5.5547,1.6151,0.14521,2.3628,0.90621,7.6865,-0.14441,-4.4505,0.59724,-5.0064,-1.0737,-2.1406,1.1821,2.4221,-2.2779,4.0253,2.9989,0.10022,10.829,0.87038
2.1577,1.9034,5.1969,1.9903,0.13683,2.4611,0.87905,7.1279,-0.14188,-4.4945,0.66864,-5.1465,-1.1364,-2.1673,1.2296,2.6187,-2.2445,3.9759,3.0782,0.09275,11.978,0.78977
2.3006,2.1409,4.8519,2.1045,0.12908,2.3769,0.82611,6.9429,-0.13714,-4.3447,0.67795,-5.2951,-1.1434,-2.1478,1.27,2.6466,-2.2442,3.9811,2.9662,0.11236,13.573,0.74364
2.1699,2.3586,4.3578,1.874,0.11957,2.1201,0.65785,7.1061,-0.13379,-4.201,0.61989,-5.4285,-1.1079,-2.2015,1.2911,2.4733,-2.2831,3.9111,2.857,0.15475,14.526,0.73517
2.0445,2.4671,4.1479,1.2909,0.10607,1.8924,0.2966,7.392,-0.136,-4.1991,0.50531,-5.5465,-1.115,-2.261,1.29,2.0926,-2.3618,3.7094,2.6489,0.19847,14.656,0.67713
2.0986,2.4611,4.0416,0.44396,0.087763,1.9018,-0.058064,7.8795,-0.14598,-4.1796,0.36145,-5.654,-1.1279,-2.6628,1.2265,1.4845,-2.4718,3.381,2.6248,0.22018,14.563,0.51036
2.1853,2.3598,4.1158,-0.49694,0.065734,1.9022,-0.11544,8.3952,-0.16275,-4.2045,0.2239,-5.7356,-1.1482,-2.8966,1.1353,0.99895,-2.5944,2.9408,2.6032,0.2,14.364,0.42085
2.0643,2.1785,4.5035,-1.3302,0.042303,1.8801,0.001455,8.7669,-0.18291,-4.2547,0.12296,-5.7658,-1.1617,-2.8668,1.032,0.50278,-2.7068,2.4407,2.3791,0.15419,13.9,0.35067
1.8641,2.039,4.7216,-1.8867,0.020184,1.8121,0.27721,8.9304,-0.20225,-4.2743,0.072633,-5.7441,-1.1696,-2.7103,0.91163,0.19716,-2.7894,2.0006,2.192,0.0927,13.935,0.34204
1.5623,2.0225,4.8062,-2.0902,0.0021985,1.9194,0.40163,8.7954,-0.21723,-4.3206,0.067722,-5.7041,-1.168,-2.7139,0.82357,-0.11998,-2.8325,1.8225,1.8951,0.033914,14.49,0.36283
1.5907,1.9965,4.8152,-1.9854,-0.0085278,2.1672,0.39855,8.3229,-0.2255,-4.3924,0.090302,-5.6883,-1.1614,-2.9559,0.7937,-0.21674,-2.839,1.6871,1.4698,-0.0010988,14.922,0.43512
1.9163,2.007,4.7013,-1.7079,-0.0078645,2.2343,0.35229,7.3889,-0.22581,-4.5302,0.12185,-5.7256,-1.152,-3.1104,0.75788,0.0081681,-2.8211,1.6236,1.1156,-0.013994,14.945,0.49664
1.9449,2.2032,4.5068,-1.4108,0.0056769,2.1917,0.1453,6.7474,-0.21815,-4.5289,0.15258,-5.8233,-1.1441,-2.967,0.75427,0.48037,-2.7936,1.6328,1.2095,0.0038094,15.588,0.48825
1.8518,2.3398,4.076,-1.1964,0.027914,1.9902,-0.088791,6.3793,-0.20448,-4.4023,0.18058,-5.9651,-1.1395,-3.0901,0.76107,0.94729,-2.7692,1.6455,1.3776,0.028069,15.913,0.45976
1.7735,2.3485,3.4677,-1.0969,0.052725,1.7607,-0.461,6.2471,-0.18905,-4.2999,0.20379,-6.1165,-1.1391,-3.3829,0.74983,1.1645,-2.7552,1.6671,1.4176,0.047206,15.325,0.4495
1.9207,2.3212,3.2377,-1.1011,0.074361,1.5495,-1.0319,5.973,-0.17789,-4.2731,0.21611,-6.238,-1.1428,-3.7649,0.73562,1.2229,-2.7541,1.6615,1.338,0.058158,15.169,0.39941
1.9621,2.3793,3.3946,-1.193,0.087812,1.4382,-1.6778,6.0875,-0.17754,-4.3151,0.21066,-6.3068,-1.1497,-4.0253,0.71816,1.1176,-2.7663,1.5944,1.3039,0.06712,15.243,0.31717
1.9349,2.3986,3.4443,-1.3547,0.089552,1.4097,-1.8899,6.5687,-0.19231,-4.3781,0.18384,-6.3356,-1.1584,-4.2706,0.69819,0.95396,-2.7896,1.4165,1.3758,0.058636,15.06,0.21242
1.7131,2.4378,3.949,-1.5413,0.079482,1.4024,-2.0364,7.0869,-0.22143,-4.5137,0.13731,-6.372,-1.1663,-4.2006,0.67535,0.86189,-2.817,1.2861,1.4313,0.062384,15.533,0.1789
1.5134,2.4567,4.3977,-1.6755,0.061878,1.4351,-1.5932,7.2865,-0.2579,-4.7013,0.078625,-6.4489,-1.1691,-4.1745,0.66063,0.65004,-2.8346,1.1008,1.3294,0.057049,16.261,0.10112
1.4119,2.5447,4.6732,-1.6865,0.042528,1.5335,-1.1365,7.3288,-0.29099,-4.7148,0.019983,-6.5659,-1.1623,-4.4014,0.65971,0.31891,-2.8264,1.0008,1.1891,0.046023,16.982,0.055086
1.3238,2.6472,4.9069,-1.5562,0.026465,1.597,-0.59333,7.4426,-0.3113,-4.563,-0.025963,-6.7217,-1.1441,-4.4277,0.67582,0.33698,-2.7845,0.86726,0.93251,0.011738,17.302,0.064389
1.171,2.708,4.9469,-1.3226,0.017579,1.5798,-0.14427,7.7328,-0.31517,-4.3617,-0.0503,-6.9206,-1.1175,-4.2281,0.70555,0.50319,-2.715,0.87928,0.73969,-0.03046,16.918,0.067139
1.3287,2.7369,4.7836,-1.0422,0.01657,1.4229,-0.077869,8.1206,-0.30446,-4.0987,-0.048347,-7.1355,-1.0884,-4.0573,0.7344,0.41946,-2.6334,1.02,0.4595,-0.05739,16.398,0.079395
1.3776,2.7827,4.475,-0.75912,0.021961,1.2642,-0.11062,8.3456,-0.28314,-3.9239,-0.019772,-7.3258,-1.0622,-4.0633,0.75295,0.33712,-2.5559,1.0038,0.37819,-0.082294,15.452,0.062658
1.7022,2.9307,3.9895,-0.49407,0.031361,1.1405,-0.34737,8.2181,-0.25434,-3.8231,0.029764,-7.4583,-1.0427,-4.1039,0.74839,0.27,-2.4927,0.94828,0.33285,-0.052263,14.637,0.089588
1.9878,3.0886,3.8035,-0.24286,0.039424,0.97529,-0.83932,7.9005,-0.21922,-3.8306,0.090436,-7.5747,-1.0309,-4.0445,0.72158,0.32211,-2.4464,0.776,0.17909,-0.023118,14.552,0.081228
2.2599,3.1273,3.6047,0.025427,0.041076,0.90098,-1.0952,8.1225,-0.17729,-3.7281,0.15459,-7.5204,-1.0261,-4.0555,0.71158,0.3216,-2.4129,0.75122,0.15534,0.00051592,15.173,0.062755
2.4683,3.1753,3.2902,0.35433,0.035262,0.95755,-1.3685,8.2815,-0.12872,-3.7786,0.2193,-7.4782,-1.0259,-4.3189,0.66897,0.30494,-2.3838,0.72937,0.1294,0.0075937,16.496,0.013815
2.4208,3.2884,3.5774,0.76388,0.02393,1.0448,-1.62,8.3531,-0.077311,-3.7592,0.28051,-7.383,-1.0276,-4.8001,0.65712,0.25583,-2.3522,0.63873,0.15982,-0.003629,17.782,0.022714
2.2689,3.3522,3.5924,1.229,0.010425,1.1413,-1.7691,8.3804,-0.030894,-3.7288,0.32654,-7.2928,-1.0289,-5.2261,0.65859,0.077585,-2.3153,0.45253,0.14732,-0.014761,18.904,0.045411
2.1337,3.3879,3.5899,1.6971,-0.0020434,1.2206,-1.576,8.6741,0.0018431,-3.569,0.3407,-7.2893,-1.0273,-5.2635,0.65075,-0.12084,-2.2739,0.41912,0.083625,-0.022067,19.612,0.057418
2.0754,3.4747,3.7037,2.117,-0.011883,1.2514,-1.4932,8.9886,0.015041,-3.3224,0.31107,-7.326,-1.0216,-5.3621,0.65421,-0.15236,-2.2307,0.45396,0.079102,-0.034011,19.557,0.037115
1.9059,3.6535,3.7377,2.4512,-0.019003,1.2325,-1.4217,9.1007,0.0079058,-3.2355,0.23885,-7.4265,-1.012,-5.2413,0.65864,0.0092898,-2.1897,0.37786,0.054921,-0.051399,18.883,0.032238
1.744,3.6984,3.7971,2.6778,-0.023651,1.2216,-1.4352,9.2258,-0.01493,-3.1528,0.14204,-7.5512,-1.0003,-5.3929,0.66909,0.33065,-2.156,0.28087,-0.004949,-0.076457,17.986,0.11955
1.6608,3.8088,3.7365,2.7886,-0.025997,1.2244,-1.5204,9.2646,-0.045015,-3.3033,0.052702,-7.7296,-0.98959,-5.65,0.68702,0.74484,-2.135,0.27221,0.017828,-0.10596,17.402,0.17466
1.6719,4.1147,3.6819,2.7838,-0.025378,1.2563,-1.5993,9.352,-0.073058,-3.4352,0.0063227,-7.6504,-0.98284,-5.5615,0.71235,1.2091,-2.1307,0.33386,0.055025,-0.13703,17.318,0.2211
1.8815,4.3033,3.6292,2.6728,-0.020082,1.2937,-1.83,9.0741,-0.091982,-3.4698,0.02618,-7.5558,-0.98181,-5.4779,0.73973,1.4205,-2.1438,0.32103,0.054932,-0.16131,17.915,0.24371
1.8206,4.4506,3.5039,2.4768,-0.0092333,1.3045,-2.0213,8.3837,-0.099193,-3.5504,0.11109,-7.5212,-0.98644,-5.6382,0.77077,1.4881,-2.1707,0.30692,0.034015,-0.17954,18.962,0.24869
1.703,4.6363,3.4183,2.2239,0.004596,1.2916,-2.1008,7.5599,-0.097236,-3.5835,0.23552,-7.5282,-0.99516,-5.6959,0.7959,1.4785,-2.205,0.26043,0.11285,-0.1839,19.829,0.22933
1.4554,4.7497,3.3376,1.9426,0.016219,1.2542,-1.7462,7.0756,-0.091875,-3.3478,0.36246,-7.4906,-1.0058,-5.7466,0.79961,1.3976,-2.24,0.22999,0.19554,-0.17165,20.223,0.19477
1.3231,4.8075,3.3204,1.6639,0.0209,1.235,-1.3517,6.9216,-0.08845,-3.122,0.45831,-7.3615,-1.0161,-5.8406,0.77927,1.2417,-2.2709,0.20994,0.25271,-0.1563,20.003,0.14359
1.0814,4.7542,3.2712,1.4268,0.016277,1.1989,-0.83855,7.2638,-0.088765,-2.9932,0.50066,-7.3322,-1.0241,-5.6173,0.73015,1.1457,-2.2947,0.22029,0.29886,-0.13939,19.346,0.087659
0.84391,4.6225,3.3132,1.2734,0.0033627,1.1037,-0.46885,7.5056,-0.090429,-2.7285,0.48112,-7.3454,-1.028,-5.496,0.67231,0.95336,-2.3096,0.2381,0.32602,-0.092111,18.295,0.012311
0.80725,4.4338,3.385,1.2309,-0.013201,0.99185,-0.22355,7.7706,-0.089172,-2.4204,0.40815,-7.4144,-1.0271,-5.727,0.59971,0.78973,-2.3139,0.24861,0.3389,-0.09018,17.109,0.039523
0.96258,4.157,3.426,1.2898,-0.026705,0.8149,-0.11612,8.1527,-0.082723,-2.176,0.30719,-7.4459,-1.0215,-5.6205,0.57257,0.98717,-2.3077,0.2544,0.3341,-0.12301,16.18,0.066575
1.0927,3.9365,3.3762,1.4015,-0.031433,0.746,-0.14687,8.2743,-0.072963,-2.1358,0.21277,-7.4958,-1.0127,-5.2879,0.5618,1.2359,-2.2934,0.24643,0.31421,-0.13652,15.291,0.061733
1.1032,3.7973,3.2294,1.5059,-0.024992,0.74997,-0.24633,8.1799,-0.064345,-2.1549,0.15273,-7.3871,-1.0026,-4.8698,0.57713,1.2759,-2.2755,0.25866,0.28617,-0.12523,15.235,0.032253
1.0662,3.7065,3.0074,1.5628,-0.0094122,0.82983,-0.39876,8.3198,-0.060529,-2.239,0.1356,-7.114,-0.99304,-4.6018,0.6516,1.3507,-2.2578,0.35093,0.26733,-0.1357,15.182,0.01533
1.0631,3.6925,2.7035,1.5621,0.0097222,0.93566,-0.47819,8.4786,-0.062144,-2.4072,0.15112,-6.8301,-0.98538,-4.4299,0.71236,1.513,-2.2427,0.36754,0.27189,-0.18522,15.145,0.038452
1.0021,3.8205,2.4274,1.5155,0.026119,1.0942,-0.53249,8.8595,-0.066802,-2.4835,0.18,-6.6275,-0.98085,-4.1875,0.80014,1.7312,-2.2305,0.36522,0.29912,-0.20435,15.407,0.032184
0.88568,3.9422,2.4402,1.4442,0.035223,1.1956,-0.70035,8.9131,-0.070888,-2.5615,0.20416,-6.4069,-0.98021,-4.1677,0.85487,2.2003,-2.2209,0.25368,0.33043,-0.22063,16.153,0.025181
0.80437,4.009,2.5188,1.3677,0.035124,1.2328,-0.66771,9.0458,-0.071891,-2.5734,0.2122,-6.1175,-0.9835,-4.238,0.89289,2.5499,-2.214,0.29916,0.3511,-0.2603,16.37,0.014465
0.73406,4.0489,2.6145,1.2954,0.026537,1.2195,-0.44898,9.4842,-0.069626,-2.516,0.2012,-6.0008,-0.98999,-4.3639,0.90875,2.6304,-2.2118,0.44168,0.34212,-0.28118,15.949,0.0094845
0.75621,4.0845,2.8737,1.2272,0.012296,1.2,-0.18266,9.7092,-0.065512,-2.2855,0.17678,-5.9817,-0.9983,-4.4933,0.91696,2.8203,-2.2166,0.52912,0.30837,-0.30147,16.189,0.0073562
0.70426,4.1291,3.1364,1.157,-0.0033256,1.089,0.065203,9.6757,-0.061087,-2.2273,0.1491,-6.0592,-1.0066,-4.4924,0.92026,3.0779,-2.2297,0.63466,0.23618,-0.32657,16.517,0.009615
0.73274,4.1319,3.2159,1.0795,-0.015619,1.0084,0.25035,9.4741,-0.057334,-1.9722,0.1265,-6.1895,-1.013,-4.5358,0.91858,3.1376,-2.2497,0.73715,0.15507,-0.34992,16.592,0.013029
0.84075,4.1785,3.1172,0.99936,-0.021023,0.958,0.39381,9.5563,-0.054837,-1.6041,0.11248,-6.3581,-1.0157,-4.2008,0.90944,3.2243,-2.272,0.79971,0.02188,-0.36917,16.77,0.015605
0.89612,4.145,2.8465,0.93193,-0.018305,0.92801,0.53904,9.6924,-0.053795,-1.4837,0.10895,-6.4908,-1.0136,-4.0843,0.89612,3.1333,-2.2897,0.82641,-0.00096432,-0.36312,16.995,0.015267
0.9053,4.1939,2.421,0.89316,-0.0086165,0.94408,0.69177,9.486,-0.05338,-1.4995,0.12021,-6.5379,-1.007,-3.798,0.87838,2.9885,-2.2982,0.80806,0.059423,-0.33313,17.18,0.012274
0.84148,4.2135,2.1343,0.88926,0.0048842,0.93082,0.77227,9.3373,-0.051185,-1.5992,0.15099,-6.4787,-0.99766,-3.4872,0.86086,2.7737,-2.2963,0.72425,0.046742,-0.28975,17.298,0.0083703
0.71424,4.1534,1.9818,0.91872,0.01818,0.90741,0.81238,9.4544,-0.04374,-1.778,0.20217,-6.3358,-0.98812,-3.5788,0.84841,2.6184,-2.2857,0.62207,0.032871,-0.26152,16.788,0.0056537
0.54877,4.059,1.7955,0.97928,0.0283,0.93013,0.95253,9.254,-0.027863,-1.8831,0.27042,-6.1804,-0.9808,-3.9241,0.83681,2.4429,-2.2692,0.48232,-0.020681,-0.2398,16.251,0.0054088
0.33112,3.9833,1.7916,1.0689,0.034551,0.97288,1.1766,8.9304,-0.0019189,-1.6843,0.34897,-5.9802,-0.97736,-4.4668,0.81451,2.234,-2.2503,0.29807,0.0094094,-0.21821,15.736,0.0077678
0.26537,4.0614,1.9128,1.1806,0.038208,0.99836,1.5556,8.8304,0.033072,-1.5483,0.42756,-5.76,-0.97821,-4.7145,0.83069,2.1823,-2.2327,0.35531,0.044424,-0.23652,15.359,0.012191
0.25408,4.0541,2.1491,1.2962,0.041268,1.0126,1.9268,8.8576,0.072155,-1.4479,0.49354,-5.5521,-0.98246,-5.0005,0.83488,2.2538,-2.2206,0.43589,0.04714,-0.26719,15.519,0.017975
0.20686,3.9952,2.3898,1.389,0.044551,1.0442,2.1522,8.8642,0.10631,-1.0965,0.53395,-5.3656,-0.98839,-5.0154,0.82168,2.5009,-2.2171,0.39373,0.041325,-0.27636,15.946,0.024351
0.27286,4.0297,2.5374,1.4388,0.047297,1.0934,2.1902,8.8793,0.12512,-0.76113,0.53854,-5.1737,-0.99406,-4.3714,0.83948,2.7438,-2.2232,0.36508,0.024559,-0.27505,16.103,0.030351
0.38569,4.0639,2.5737,1.4468,0.04703,1.1257,2.147,8.9926,0.12106,-0.57126,0.50363,-5.0241,-0.99807,-3.8345,0.83603,2.9336,-2.2365,0.45934,0.0072723,-0.28126,15.805,0.034752
0.4537,4.0517,2.5131,1.4346,0.041989,1.1006,2.0095,9.051,0.093084,-0.409,0.43526,-4.9639,-0.99994,-3.1846,0.80659,3.0796,-2.2517,0.6108,-0.0098011,-0.26756,15.071,0.036489
0.53938,3.9841,2.32,1.4297,0.0312,1.0196,1.6594,8.8889,0.048363,-0.43104,0.34819,-4.9534,-0.99978,-2.6426,0.76095,3.2306,-2.2623,0.70244,-0.017448,-0.23269,14.127,0.03528
0.586,3.8636,2.0887,1.452,0.022737,0.87787,1.2666,8.8559,0.0012837,-0.58287,0.25875,-5.0093,-0.99766,-2.1711,0.71622,3.2599,-2.2621,0.66084,-0.0093532,-0.19941,13.477,0.031734
0.58685,3.713,1.9442,1.504,0.026344,0.72262,0.95251,8.7889,-0.031513,-0.90928,0.17719,-5.1442,-0.99333,-1.8357,0.68189,3.1857,-2.2482,0.77376,0.0057008,-0.16036,13.107,0.026731
0.57308,3.675,1.6109,1.5699,0.033931,0.58605,0.8139,8.7727,-0.038145,-1.191,0.10762,-5.292,-0.98665,-1.5765,0.65995,3.0905,-2.2218,0.92,0.016798,-0.13261,13.091,0.020859
0.65625,3.6754,1.4149,1.6256,0.036868,0.42245,0.80519,8.9817,-0.016342,-1.3167,0.054152,-5.4169,-0.97817,-1.688,0.65871,3.0679,-2.188,1.0819,0.022922,-0.13703,13.086,0.014622
0.70092,3.7758,1.4116,1.6487,0.039074,0.37623,1.2635,9.3519,0.026278,-1.3889,0.025539,-5.5209,-0.96949,-1.5809,0.66276,3.147,-2.1533,1.2978,0.025239,-0.13947,13.339,0.0088695
0.65369,3.9503,1.511,1.6253,0.03342,0.48026,1.7237,9.4775,0.076205,-1.1442,0.034194,-5.4566,-0.96293,-1.3208,0.66296,3.3227,-2.1249,1.4448,0.025938,-0.1459,13.91,0.0048695
0.6595,4.1075,1.6206,1.5553,0.029994,0.70172,1.932,9.35,0.12005,-0.66145,0.089526,-5.1988,-0.96049,-1.3434,0.6713,3.5759,-2.108,1.5504,0.025933,-0.16994,14.203,0.0040178
0.85193,4.1946,1.7712,1.4534,0.0016758,0.90387,2.1847,8.9686,0.14899,-0.41372,0.1911,-4.7913,-0.96278,-1.3615,0.70069,3.6264,-2.1054,1.6933,0.025469,-0.18681,14.974,0.0072204
0.99265,4.1138,1.8836,1.3427,0.017944,1.0619,2.3841,8.5163,0.1598,-0.29813,0.32631,-4.4728,-0.96867,-1.5163,0.74981,3.5452,-2.1166,1.8084,0.024857,-0.18569,15.373,0.014324
1.0793,3.975,1.9068,1.2456,0.075366,1.1361,2.5398,8.055,0.15337,-0.25359,0.47251,-4.3306,-0.97597,-1.7318,0.79106,3.3591,-2.1388,1.8192,0.024828,-0.18139,15.173,0.023855
1.1037,3.7502,1.8668,1.1772,0.10112,1.1092,2.6781,7.4759,0.13201,-0.49331,0.60118,-4.4058,-0.9824,-2.2858,0.80307,3.3276,-2.1678,1.7347,0.025405,-0.17734,14.354,0.033211
1.0626,3.4202,1.7618,1.1413,0.1005,1.0361,2.694,6.9082,0.098013,-0.7699,0.68464,-4.6554,-0.98669,-3.1029,0.78517,3.2612,-2.1992,1.6106,0.02531,-0.17435,12.727,0.03941
0.94406,3.1684,1.6284,1.1309,0.053394,0.88613,2.5578,6.9988,0.05475,-1.0746,0.70493,-4.9789,-0.98888,-3.7842,0.76043,3.2876,-2.2281,1.5535,0.022861,-0.18409,11.396,0.040324
0.82814,3.0081,1.4951,1.1333,0.12233,0.6729,2.5516,7.2543,0.008915,-1.5105,0.66151,-5.2934,-0.99009,-4.0113,0.81088,3.7357,-2.2492,1.5219,0.017452,-0.21144,10.979,0.036097
0.74962,2.9509,1.3851,1.1339,0.18913,0.47,2.3933,7.687,-0.029896,-1.6463,0.57269,-5.5821,-0.9917,-3.923,0.84058,4.2009,-2.256,1.5716,0.0099377,-0.2462,10.223,0.029695
0.60495,3.0481,1.2952,1.1191,0.23626,0.31183,2.3972,8,-0.052808,-1.6986,0.46934,-5.8066,-0.99462,-3.5538,0.84618,4.6567,-2.2419,1.6973,0.001889,-0.2779,9.7484,0.025612
0.4619,3.1669,1.2268,1.0822,0.27595,0.15905,2.4071,8.2503,-0.054995,-1.9226,0.38285,-5.8618,-0.99892,-3.1054,0.90577,5.0377,-2.2056,2.0212,-0.0051226,-0.30207,10.764,0.027003
0.41581,3.3342,1.1819,1.0302,0.30297,0.20926,2.3383,8.6203,-0.036692,-1.8683,0.33229,-5.6903,-1.0039,-2.8546,0.92561,5.2424,-2.155,2.4866,-0.0093786,-0.31642,11.659,0.033867
0.46284,3.454,1.1575,0.97992,0.31811,0.39963,2.3491,8.8139,-0.002451,-1.6841,0.31807,-5.4752,-1.0086,-2.6959,0.90521,5.2527,-2.1026,2.922,-0.0086307,-0.31964,12.553,0.043981
0.5285,3.5341,1.1024,0.94754,0.31445,0.5727,2.3209,8.7506,0.040413,-1.3428,0.32615,-5.1928,-1.0118,-2.1654,0.83194,5.0716,-2.058,3.3009,-0.00051023,-0.31991,13.255,0.054496
0.51132,3.6073,1.0384,0.9397,0.29225,0.69846,2.2867,8.6478,0.083325,-1.0264,0.33907,-4.9348,-1.0128,-2.0247,0.75607,4.7563,-2.0237,3.5535,0.015846,-0.32202,13.638,0.062729
0.46325,3.6554,1.0629,0.94802,0.25855,0.7648,2.1827,8.3267,0.11737,-0.79955,0.34533,-4.6147,-1.0117,-2.156,0.6971,4.3821,-1.9976,3.6776,0.038208,-0.30494,13.565,0.066514
0.36641,3.6154,1.1186,0.94836,0.23736,0.7966,2.4335,7.8829,0.13466,-0.61611,0.34291,-4.2988,-1.0096,-2.1279,0.63001,4.0064,-1.9785,3.7093,0.061705,-0.285,13.043,0.064315
0.41938,3.5388,1.2008,0.90797,0.25677,0.81246,2.6966,7.3999,0.13095,-0.59429,0.3379,-3.9971,-1.0086,-2.2119,0.62582,3.8232,-1.9712,3.6004,0.080527,-0.26289,12.068,0.055405
0.46696,3.4336,1.2257,0.79515,0.30892,0.79098,2.9335,6.9905,0.10797,-0.41765,0.33964,-3.7052,-1.0103,-2.4567,0.62787,3.8859,-1.9836,3.4186,0.089753,-0.22194,10.831,0.040355
0.49433,3.2655,1.2022,0.58875,0.36125,0.71841,3.1397,6.8042,0.073734,-0.27723,0.35436,-3.4585,-1.0154,-2.0979,0.63857,3.9931,-2.023,3.1831,0.086706,-0.17533,9.7194,0.021495
0.49229,3.0057,1.1331,0.28918,0.395,0.61633,3.2468,6.8754,0.039529,-0.22306,0.38027,-3.3294,-1.0236,-1.956,0.65047,4.0365,-2.0932,3.0089,0.072123,-0.14651,8.774,0.0030122
0.49392,2.6998,1.0398,-0.073436,0.39924,0.51542,3.2615,7.1597,0.01483,-0.24918,0.40686,-3.3794,-1.0335,-1.4589,0.6727,4.1193,-2.1936,2.9222,0.051874,-0.12994,7.8624,-0.0096291
0.52288,2.436,0.92379,-0.44339,0.3765,0.44936,3.1594,7.6754,0.0033354,-0.19364,0.4205,-3.5492,-1.0435,-0.80754,0.70349,4.4281,-2.3168,2.9643,0.041077,-0.12398,7.6949,-0.011642
0.48565,2.2172,0.78728,-0.75519,0.32596,0.4137,3.0634,8.1438,0.0022858,-0.10726,0.41227,-3.8444,-1.0517,-0.87429,0.74097,4.7025,-2.4464,3.0115,0.058966,-0.11315,7.9284,-0.002518
0.39874,2.1771,0.64921,-0.95361,0.28038,0.39181,2.8272,8.4046,0.0049596,-0.049619,0.38366,-4.2383,-1.0573,-0.96795,0.77913,4.9275,-2.5538,3.1811,0.10536,-0.090137,8.2787,0.012817
0.30613,2.2978,0.67137,-1.0125,0.23764,0.37165,2.3913,8.4111,0.0046954,-0.21096,0.34737,-4.6338,-1.0598,-1.783,0.8069,5.0506,-2.6011,3.3697,0.16594,-0.076691,8.6624,0.027638
0.27397,2.3935,0.82643,-0.94055,0.21377,0.355,1.8511,8.1563,-0.001335,-0.52788,0.31899,-4.8228,-1.0596,-2.2707,0.81841,5.043,-2.5628,3.4075,0.22823,-0.084766,8.9883,0.036764
0.25624,2.4261,0.97336,-0.76982,0.20095,0.34246,1.5165,7.8726,-0.0099859,-1.0503,0.30508,-4.8024,-1.0574,-2.5615,0.81229,4.9804,-2.4455,3.3822,0.28188,-0.10921,8.9321,0.037751
0.25517,2.4192,1.1054,-0.53885,0.18939,0.35821,1.3491,7.4049,-0.013049,-1.417,0.3017,-4.6922,-1.0542,-2.732,0.79279,4.9259,-2.2786,3.2383,0.31674,-0.13698,8.7413,0.031024
